id,value
7663343-0001_0_I,0.0034285392911643
7663343-0001_1_I,0.0128739194722475
7663343-0001_2_I,0.0204566629286567
7663343-0001_3_I,0.026176769660392
7663343-0001_4_I,0.0316990351076736
7663343-0001_5_I,0.03266474938154
7663343-0001_6_I,0.0297256576172467
7663343-0001_7_I,0.0257803465982332
7663343-0001_8_I,0.0230892089991848
7663343-0001_9_I,0.0234086948125189
7663343-0001_10_I,0.0264555653695594
7663343-0001_11_I,0.0298524300618934
7663343-0001_12_I,0.0317349860550311
7663343-0001_13_I,0.0328853423211442
7663343-0001_14_I,0.0353619220005876
7663343-0001_15_I,0.0391995282761791
7663343-0001_16_I,0.0425378199523241
7663343-0001_17_I,0.0443484370260843
7663343-0001_18_I,0.0454718763625076
7663343-0001_19_I,0.0473639847185889
7663343-0001_20_I,0.0512380973114763
7663343-0001_21_I,0.0562844847707196
7663343-0001_22_I,0.0615731986464968
7663343-0001_23_I,0.0665745270913899
7663343-0001_24_I,0.0715756333883076
7663343-0001_25_I,0.0765769618332007
7663343-0001_26_I,0.0816773682751365
7663343-0001_27_I,0.0870062168851418
7663343-0001_28_I,0.0914720576352556
7663343-0001_29_I,0.0941445348043677
7663343-0001_30_I,0.0955102265079997
7663343-0001_31_I,0.0968366720693055
7663343-0001_32_I,0.0996234443717774
7663343-0001_33_I,0.1035012594309221
7663343-0001_34_I,0.1066097020018199
7663343-0001_35_I,0.1082042061201472
7663343-0001_36_I,0.1094184669538596
7663343-0001_37_I,0.1120706175832196
7663343-0001_38_I,0.1159484326423643
7663343-0001_39_I,0.119416606834812
7663343-0001_40_I,0.1212619160174023
7663343-0001_41_I,0.1214860633246134
7663343-0001_42_I,0.1205783666969973
7663343-0001_43_I,0.1207631938125569
7663343-0001_44_I,0.1225036491507432
7663343-0001_45_I,0.1259193964209888
7663343-0001_46_I,0.1297972114801335
7663343-0001_47_I,0.1329238701850167
7663343-0001_48_I,0.1340861483924781
7663343-0001_49_I,0.1340541590840159
7663343-0001_50_I,0.1337579617834396
7663343-0001_51_I,0.1337579617834396
7663343-0001_52_I,0.1337579617834396
7663343-0001_53_I,0.1337579617834396
7663343-0001_54_I,0.1337579617834396
7663343-0001_55_I,0.1337579617834396
7663343-0001_56_I,0.1337579617834396
7663343-0001_57_I,0.1340640816935852
7663343-0001_58_I,0.1340811870876934
7663343-0001_59_I,0.1328792184419549
7663343-0001_60_I,0.129732714517933
7663343-0001_61_I,0.1258548994587884
7663343-0001_62_I,0.1224589974076813
7663343-0001_63_I,0.1207582325077723
7663343-0001_64_I,0.1205882893065666
7663343-0001_65_I,0.1210191082802548
7663343-0001_66_I,0.1210191082802548
7663343-0001_67_I,0.1210191082802548
7663343-0001_68_I,0.1210191082802548
7663343-0001_69_I,0.1210191082802548
7663343-0001_70_I,0.1214511120431453
7663343-0001_71_I,0.1212794657074614
7663343-0001_72_I,0.1197452007151388
7663343-0001_73_I,0.1165660410387285
7663343-0001_74_I,0.1119356626881446
7663343-0001_75_I,0.1061372302827381
7663343-0001_76_I,0.1011959928651995
7663343-0001_77_I,0.0977209320855134
7663343-0001_78_I,0.0960282385620451
7663343-0001_79_I,0.0949049843489347
7663343-0001_80_I,0.0931375010070709
7663343-0001_81_I,0.0895127865412686
7663343-0001_82_I,0.0845599233796823
7663343-0001_83_I,0.0792088599721338
7663343-0001_84_I,0.0742075315272407
7663343-0001_85_I,0.0692064252303231
7663343-0001_86_I,0.0642050967854299
7663343-0001_87_I,0.0592037683405369
7663343-0001_88_I,0.0542026620436192
7663343-0001_89_I,0.0492014076480513
7663343-0001_90_I,0.0441999681291705
7663343-0001_91_I,0.0391985656349522
7663343-0001_92_I,0.034197163140734
7663343-0001_93_I,0.0291957236218532
7663343-0001_94_I,0.0241944692262852
7663343-0001_95_I,0.0191932888800424
7663343-0001_96_I,0.0141921455584622
7663343-0001_97_I,0.0091909281875568
7663343-0001_98_I,0.0037665189234531
7663343-0001_99_I,-0.0010761218176562
7663343-0001_100_I,-0.0044067123639862
7663343-0001_101_I,-0.0060270596967887
7663343-0001_102_I,-0.007150499033212
7663343-0001_103_I,-0.0089903655904041
7663343-0001_104_I,-0.0127596613635502
7663343-0001_105_I,-0.0178845040827836
7663343-0001_106_I,-0.0234988868905444
7663343-0001_107_I,-0.0279084501535487
7663343-0001_108_I,-0.0304968443139596
7663343-0001_109_I,-0.0318346194220124
7663343-0001_110_I,-0.0332077160581589
7663343-0001_111_I,-0.0360504696504398
7663343-0001_112_I,-0.0399282847095845
7663343-0001_113_I,-0.0432693902600849
7663343-0001_114_I,-0.0448605621587807
7663343-0001_115_I,-0.0449894079845314
7663343-0001_116_I,-0.0445859872611465
7663343-0001_117_I,-0.0445859872611465
7663343-0001_118_I,-0.0443422168827722
7663343-0001_119_I,-0.044231587191007
7663343-0001_120_I,-0.0452010409557931
7663343-0001_121_I,-0.0481806377009402
7663343-0001_122_I,-0.0520331278908857
7663343-0001_123_I,-0.0555452873824689
7663343-0001_124_I,-0.0575038920325296
7663343-0001_125_I,-0.0577926844005915
7663343-0001_126_I,-0.0573417240104641
7663343-0001_127_I,-0.0573248407643312
7663343-0001_128_I,-0.0573248407643312
7663343-0001_129_I,-0.0573248407643312
7663343-0001_130_I,-0.0573248407643312
7663343-0001_131_I,-0.0573248407643312
7663343-0001_132_I,-0.0573248407643312
7663343-0001_133_I,-0.0573248407643312
7663343-0001_134_I,-0.0573248407643312
7663343-0001_135_I,-0.0573248407643312
7663343-0001_136_I,-0.0573248407643312
7663343-0001_137_I,-0.0573248407643312
7663343-0001_138_I,-0.0573248407643312
7663343-0001_139_I,-0.0573248407643312
7663343-0001_140_I,-0.0573248407643312
7663343-0001_141_I,-0.0573248407643312
7663343-0001_142_I,-0.0573248407643312
7663343-0001_143_I,-0.0573055879397938
7663343-0001_144_I,-0.0568581078679481
7663343-0001_145_I,-0.0571541200452116
7663343-0001_146_I,-0.0591236839953936
7663343-0001_147_I,-0.062639545953234
7663343-0001_148_I,-0.0664884817755725
7663343-0001_149_I,-0.0694572673192486
7663343-0001_150_I,-0.0704193161515203
7663343-0001_151_I,-0.0703050210181605
7663343-0001_152_I,-0.0700636942675159
7663343-0001_153_I,-0.0700636942675159
7663343-0001_154_I,-0.0700636942675159
7663343-0001_155_I,-0.0700636942675159
7663343-0001_156_I,-0.0700636942675159
7663343-0001_157_I,-0.0700636942675159
7663343-0001_158_I,-0.0700636942675159
7663343-0001_159_I,-0.0700636942675159
7663343-0001_160_I,-0.0700636942675159
7663343-0001_161_I,-0.0700636942675159
7663343-0001_162_I,-0.0700636942675159
7663343-0001_163_I,-0.0700636942675159
7663343-0001_164_I,-0.0700636942675159
7663343-0001_165_I,-0.0700636942675159
7663343-0001_166_I,-0.0700636942675159
7663343-0001_167_I,-0.0700636942675159
7663343-0001_168_I,-0.0700636942675159
7663343-0001_169_I,-0.0700636942675159
7663343-0001_170_I,-0.0700636942675159
7663343-0001_171_I,-0.0700636942675159
7663343-0001_172_I,-0.0700636942675159
7663343-0001_173_I,-0.0700636942675159
7663343-0001_174_I,-0.0700636942675159
7663343-0001_175_I,-0.0700636942675159
7663343-0001_176_I,-0.0700636942675159
7663343-0001_177_I,-0.0700636942675159
7663343-0001_178_I,-0.0700636942675159
7663343-0001_179_I,-0.0700636942675159
7663343-0001_180_I,-0.0700636942675159
7663343-0001_181_I,-0.0700636942675159
7663343-0001_182_I,-0.0704607467489384
7663343-0001_183_I,-0.0703415273354565
7663343-0001_184_I,-0.0687756432812974
7663343-0001_185_I,-0.065447163140734
7663343-0001_186_I,-0.0615693110569268
7663343-0001_187_I,-0.0583553111730361
7663343-0001_188_I,-0.0570183876322225
7663343-0001_189_I,-0.0569850284112451
7663343-0001_190_I,-0.0573248407643312
7663343-0001_191_I,-0.0573248407643312
7663343-0001_192_I,-0.0576321454636791
7663343-0001_193_I,-0.0576474736739839
7663343-0001_194_I,-0.0564407658714362
7663343-0001_195_I,-0.0532918923690097
7663343-0001_196_I,-0.049414077309865
7663343-0001_197_I,-0.045758114028852
7663343-0001_198_I,-0.0439794492388914
7663343-0001_199_I,-0.0448384954598878
7663343-0001_200_I,-0.0483272553647255
7663343-0001_201_I,-0.0522050704238702
7663343-0001_202_I,-0.0556883506786473
7663343-0001_203_I,-0.0575638719858963
7663343-0001_204_I,-0.0577993488398544
7663343-0001_205_I,-0.0573248407643312
7663343-0001_206_I,-0.0573248407643312
7663343-0001_207_I,-0.0573248407643312
7663343-0001_208_I,-0.0573248407643312
7663343-0001_209_I,-0.0573248407643312
7663343-0001_210_I,-0.0573248407643312
7663343-0001_211_I,-0.0573248407643312
7663343-0001_212_I,-0.0573248407643312
7663343-0001_213_I,-0.0573248407643312
7663343-0001_214_I,-0.0573248407643312
7663343-0001_215_I,-0.0573248407643312
7663343-0001_216_I,-0.0573248407643312
7663343-0001_217_I,-0.0573248407643312
7663343-0001_218_I,-0.0573248407643312
7663343-0001_219_I,-0.0573248407643312
7663343-0001_220_I,-0.0573248407643312
7663343-0001_221_I,-0.0573248407643312
7663343-0001_222_I,-0.0573248407643312
7663343-0001_223_I,-0.0573248407643312
7663343-0001_224_I,-0.0573248407643312
7663343-0001_225_I,-0.0573248407643312
7663343-0001_226_I,-0.0573248407643312
7663343-0001_227_I,-0.0573248407643312
7663343-0001_228_I,-0.0573248407643312
7663343-0001_229_I,-0.0573248407643312
7663343-0001_230_I,-0.0573248407643312
7663343-0001_231_I,-0.0573248407643312
7663343-0001_232_I,-0.0573248407643312
7663343-0001_233_I,-0.0573248407643312
7663343-0001_234_I,-0.0573248407643312
7663343-0001_235_I,-0.0573248407643312
7663343-0001_236_I,-0.0573248407643312
7663343-0001_237_I,-0.0573248407643312
7663343-0001_238_I,-0.0573248407643312
7663343-0001_239_I,-0.0573248407643312
7663343-0001_240_I,-0.0572058434988247
7663343-0001_241_I,-0.0569079800884327
7663343-0001_242_I,-0.0575032255886033
7663343-0001_243_I,-0.0599216395231461
7663343-0001_244_I,-0.0635871181424401
7663343-0001_245_I,-0.067286437303325
7663343-0001_246_I,-0.0698063728626403
7663343-0001_247_I,-0.0704691883720049
7663343-0001_248_I,-0.0702052765771914
7663343-0001_249_I,-0.0700636942675159
7663343-0001_250_I,-0.0700636942675159
7663343-0001_251_I,-0.0700636942675159
7663343-0001_252_I,-0.0700636942675159
7663343-0001_253_I,-0.0700636942675159
7663343-0001_254_I,-0.0700636942675159
7663343-0001_255_I,-0.0700636942675159
7663343-0001_256_I,-0.0700636942675159
7663343-0001_257_I,-0.0700636942675159
7663343-0001_258_I,-0.0700636942675159
7663343-0001_259_I,-0.0700636942675159
7663343-0001_260_I,-0.0700636942675159
7663343-0001_261_I,-0.0704794812281999
7663343-0001_262_I,-0.0703321600958258
7663343-0001_263_I,-0.0686913381246209
7663343-0001_264_I,-0.0653253890255346
7663343-0001_265_I,-0.0614475369417273
7663343-0001_266_I,-0.0582710060163596
7663343-0001_267_I,-0.0570090203925918
7663343-0001_268_I,-0.0570037628905065
7663343-0001_269_I,-0.0573248407643312
7663343-0001_270_I,-0.0573248407643312
7663343-0001_271_I,-0.0573248407643312
7663343-0001_272_I,-0.0573248407643312
7663343-0001_273_I,-0.0573248407643312
7663343-0001_274_I,-0.0573248407643312
7663343-0001_275_I,-0.0573248407643312
7663343-0001_276_I,-0.0573248407643312
7663343-0001_277_I,-0.0573248407643312
7663343-0001_278_I,-0.0573248407643312
7663343-0001_279_I,-0.0573248407643312
7663343-0001_280_I,-0.0573248407643312
7663343-0001_281_I,-0.0573248407643312
7663343-0001_282_I,-0.0573248407643312
7663343-0001_283_I,-0.0573248407643312
7663343-0001_284_I,-0.0573248407643312
7663343-0001_285_I,-0.0573248407643312
7663343-0001_286_I,-0.0573248407643312
7663343-0001_287_I,-0.0573248407643312
7663343-0001_288_I,-0.0573248407643312
7663343-0001_289_I,-0.0573248407643312
7663343-0001_290_I,-0.0573248407643312
7663343-0001_291_I,-0.0573248407643312
7663343-0001_292_I,-0.0573248407643312
7663343-0001_293_I,-0.0573248407643312
7663343-0001_294_I,-0.0573248407643312
7663343-0001_295_I,-0.0573248407643312
7663343-0001_296_I,-0.0573248407643312
7663343-0001_297_I,-0.0573248407643312
7663343-0001_298_I,-0.0573248407643312
7663343-0001_299_I,-0.0573248407643312
7663343-0001_300_I,-0.0573248407643312
7663343-0001_301_I,-0.0573248407643312
7663343-0001_302_I,-0.0573248407643312
7663343-0001_303_I,-0.0573248407643312
7663343-0001_304_I,-0.0573248407643312
7663343-0001_305_I,-0.0573248407643312
7663343-0001_306_I,-0.0573248407643312
7663343-0001_307_I,-0.0573248407643312
7663343-0001_308_I,-0.0573248407643312
7663343-0001_309_I,-0.0573248407643312
7663343-0001_310_I,-0.0573248407643312
7663343-0001_311_I,-0.0573248407643312
7663343-0001_312_I,-0.0573248407643312
7663343-0001_313_I,-0.0573248407643312
7663343-0001_314_I,-0.0573248407643312
7663343-0001_315_I,-0.0573248407643312
7663343-0001_316_I,-0.0573248407643312
7663343-0001_317_I,-0.0577231520842812
7663343-0001_318_I,-0.0576019703636829
7663343-0001_319_I,-0.0560312360787269
7663343-0001_320_I,-0.0527003493350963
7663343-0001_321_I,-0.0488225342759516
7663343-0001_322_I,-0.0456110150444533
7663343-0001_323_I,-0.0442790157837617
7663343-0001_324_I,-0.0442473596972627
7663343-0001_325_I,-0.0445859872611465
7663343-0001_326_I,-0.0445859872611465
7663343-0001_327_I,-0.0445859872611465
7663343-0001_328_I,-0.0445859872611465
7663343-0001_329_I,-0.0445859872611465
7663343-0001_330_I,-0.0445859872611465
7663343-0001_331_I,-0.0445859872611465
7663343-0001_332_I,-0.0445859872611465
7663343-0001_333_I,-0.0445859872611465
7663343-0001_334_I,-0.0445859872611465
7663343-0001_335_I,-0.0445859872611465
7663343-0001_336_I,-0.0445859872611465
7663343-0001_337_I,-0.0445859872611465
7663343-0001_338_I,-0.0445859872611465
7663343-0001_339_I,-0.0445859872611465
7663343-0001_340_I,-0.0445859872611465
7663343-0001_341_I,-0.0445859872611465
7663343-0001_342_I,-0.0445859872611465
7663343-0001_343_I,-0.0445859872611465
7663343-0001_344_I,-0.0445859872611465
7663343-0001_345_I,-0.0445859872611465
7663343-0001_346_I,-0.0445859872611465
7663343-0001_347_I,-0.0445859872611465
7663343-0001_348_I,-0.0445859872611465
7663343-0001_349_I,-0.0445859872611465
7663343-0001_350_I,-0.0442412876526008
7663343-0001_351_I,-0.0442820518060927
7663343-0001_352_I,-0.0456383392454314
7663343-0001_353_I,-0.0488620025662534
7663343-0001_354_I,-0.0527398176253981
7663343-0001_355_I,-0.056058560279705
7663343-0001_356_I,-0.0576050063860138
7663343-0001_357_I,-0.0577170800396194
7663343-0001_358_I,-0.0573248407643312
7663343-0001_359_I,-0.0573248407643312
7663343-0001_360_I,-0.0573248407643312
7663343-0001_361_I,-0.0573248407643312
7663343-0001_362_I,-0.0573248407643312
7663343-0001_363_I,-0.0573248407643312
7663343-0001_364_I,-0.0573248407643312
7663343-0001_365_I,-0.0573248407643312
7663343-0001_366_I,-0.0573248407643312
7663343-0001_367_I,-0.0573248407643312
7663343-0001_368_I,-0.0573248407643312
7663343-0001_369_I,-0.0573248407643312
7663343-0001_370_I,-0.0573248407643312
7663343-0001_371_I,-0.0573248407643312
7663343-0001_372_I,-0.0573248407643312
7663343-0001_373_I,-0.0577056764435472
7663343-0001_374_I,-0.0576107081840499
7663343-0001_375_I,-0.0561098764620299
7663343-0001_376_I,-0.0528139409998673
7663343-0001_377_I,-0.0489361259407226
7663343-0001_378_I,-0.0456896554277563
7663343-0001_379_I,-0.0442877536041287
7663343-0001_380_I,-0.0442298840565287
7663343-0001_381_I,-0.0445859872611465
7663343-0001_382_I,-0.0445859872611465
7663343-0001_383_I,-0.0445859872611465
7663343-0001_384_I,-0.0445859872611465
7663343-0001_385_I,-0.0445859872611465
7663343-0001_386_I,-0.0445859872611465
7663343-0001_387_I,-0.0445859872611465
7663343-0001_388_I,-0.0445859872611465
7663343-0001_389_I,-0.0445859872611465
7663343-0001_390_I,-0.0445859872611465
7663343-0001_391_I,-0.0445859872611465
7663343-0001_392_I,-0.0445859872611465
7663343-0001_393_I,-0.0443847211954049
7663343-0001_394_I,-0.0442103350346906
7663343-0001_395_I,-0.0450522018122536
7663343-0001_396_I,-0.0478407142738664
7663343-0001_397_I,-0.0516295590688505
7663343-0001_398_I,-0.0552055120540453
7663343-0001_399_I,-0.0573553490862906
7663343-0001_400_I,-0.0577715433182628
7663343-0001_401_I,-0.0573841542737716
7663343-0001_402_I,-0.0573248407643312
7663343-0001_403_I,-0.0573248407643312
7663343-0001_404_I,-0.0573248407643312
7663343-0001_405_I,-0.0573248407643312
7663343-0001_406_I,-0.0573248407643312
7663343-0001_407_I,-0.0573248407643312
7663343-0001_408_I,-0.0573248407643312
7663343-0001_409_I,-0.0573248407643312
7663343-0001_410_I,-0.0573248407643312
7663343-0001_411_I,-0.0573248407643312
7663343-0001_412_I,-0.0573248407643312
7663343-0001_413_I,-0.0573248407643312
7663343-0001_414_I,-0.0573248407643312
7663343-0001_415_I,-0.0573248407643312
7663343-0001_416_I,-0.0573248407643312
7663343-0001_417_I,-0.0573248407643312
7663343-0001_418_I,-0.0573248407643312
7663343-0001_419_I,-0.0573248407643312
7663343-0001_420_I,-0.0573248407643312
7663343-0001_421_I,-0.0575173690097058
7663343-0001_422_I,-0.0577048619009706
7663343-0001_423_I,-0.0568892085845087
7663343-0001_424_I,-0.0541400163145473
7663343-0001_425_I,-0.0503642782501137
7663343-0001_426_I,-0.0469228728887056
7663343-0001_427_I,-0.0449885193926297
7663343-0001_428_I,-0.0438650060068812
7663343-0001_429_I,-0.0416922136838414
7663343-0001_430_I,-0.0380519488597589
7663343-0001_431_I,-0.0344983957954201
7663343-0001_432_I,-0.0324293836015696
7663343-0001_433_I,-0.0313058331911586
7663343-0001_434_I,-0.0292672922946049
7663343-0001_435_I,-0.0257391751734531
7663343-0001_436_I,-0.0220154937845958
7663343-0001_437_I,-0.0194224715413633
7663343-0001_438_I,-0.0187108205020662
7663343-0001_439_I,-0.018950481142895
7663343-0001_440_I,-0.019108280254777
7663343-0001_441_I,-0.019108280254777
7663343-0001_442_I,-0.019108280254777
7663343-0001_443_I,-0.019108280254777
7663343-0001_444_I,-0.019108280254777
7663343-0001_445_I,-0.019108280254777
7663343-0001_446_I,-0.019108280254777
7663343-0001_447_I,-0.019108280254777
7663343-0001_448_I,-0.019108280254777
7663343-0001_449_I,-0.0192920706797846
7663343-0001_450_I,-0.0194926703015999
7663343-0001_451_I,-0.018703230446239
7663343-0001_452_I,-0.0163928544770814
7663343-0001_453_I,-0.0125073382881217
7663343-0001_454_I,-0.0073295132767478
7663343-0001_455_I,-0.0017676684651766
7663343-0001_456_I,0.0025788047728048
7663343-0001_457_I,0.0054267418178457
7663343-0001_458_I,0.0066771016975659
7663343-0001_459_I,0.0067067954769487
7663343-0001_460_I,0.0063694267515923
7663343-0001_461_I,0.0063694267515923
7663343-0001_462_I,0.0063694267515923
7663343-0001_463_I,0.0063694267515923
7663343-0001_464_I,0.0063694267515923
7663343-0001_465_I,0.0063694267515923
7663343-0001_466_I,0.0063694267515923
7663343-0001_467_I,0.0066343011876327
7663343-0001_468_I,0.0067132747928988
7663343-0001_469_I,0.0056762880435812
7663343-0001_470_I,0.0026122750677699
7663343-0001_471_I,-0.0012655399913747
7663343-0001_472_I,-0.0045240064950144
7663343-0001_473_I,-0.0062432837262094
7663343-0001_474_I,-0.0073731283292576
7663343-0001_475_I,-0.0093379531226304
7663343-0001_476_I,-0.0133320996715764
7663343-0001_477_I,-0.0186003389089513
7663343-0001_478_I,-0.0240717694945215
7663343-0001_479_I,-0.0283096123725167
7663343-0001_480_I,-0.0306402778567637
7663343-0001_481_I,-0.0318918225256862
7663343-0001_482_I,-0.0332779148183955
7663343-0001_483_I,-0.0360115567300766
7663343-0001_484_I,-0.0405180135350318
7663343-0001_485_I,-0.0462132211811874
7663343-0001_486_I,-0.0512575352593267
7663343-0001_487_I,-0.0549829197826623
7663343-0001_488_I,-0.0571065433538065
7663343-0001_489_I,-0.0577359996421937
7663343-0001_490_I,-0.0574552416259099
7663343-0001_491_I,-0.0573248407643312
7663343-0001_492_I,-0.0573248407643312
7663343-0001_493_I,-0.0573248407643312
7663343-0001_494_I,-0.0573248407643312
7663343-0001_495_I,-0.0573248407643312
7663343-0001_496_I,-0.0573248407643312
7663343-0001_497_I,-0.0573248407643312
7663343-0001_498_I,-0.0577966830641492
7663343-0001_499_I,-0.0575652048737489
7663343-0001_500_I,-0.0557003466693206
7663343-0001_501_I,-0.0522223979659539
7663343-0001_502_I,-0.0483445829068092
7663343-0001_503_I,-0.045280125635047
7663343-0001_504_I,-0.0442422502938277
7663343-0001_505_I,-0.0443208906771307
7663343-0001_506_I,-0.0445859872611465
7663343-0001_507_I,-0.0445859872611465
7663343-0001_508_I,-0.0445859872611465
7663343-0001_509_I,-0.0445859872611465
7663343-0001_510_I,-0.0444645463679102
7663343-0001_511_I,-0.044170422448438
7663343-0001_512_I,-0.044772813708485
7663343-0001_513_I,-0.0472021128938239
7663343-0001_514_I,-0.05087121993005
7663343-0001_515_I,-0.0545669106740029
7663343-0001_516_I,-0.057075960982522
7663343-0001_517_I,-0.0577316307320102
7663343-0001_518_I,-0.0574639794462769
7663343-0001_519_I,-0.0573248407643312
7663343-0001_520_I,-0.0572931476531696
7663343-0001_521_I,-0.0568644020605854
7663343-0001_522_I,-0.0571976240237337
7663343-0001_523_I,-0.059222873066424
7663343-0001_524_I,-0.0627572473555505
7663343-0001_525_I,-0.0665875227479527
7663343-0001_526_I,-0.0699635795799212
7663343-0001_527_I,-0.070670232289771
7663343-0001_528_I,-0.0687074808775023
7663343-0001_529_I,-0.0650180473015241
7663343-0001_530_I,-0.0611402322423794
7663343-0001_531_I,-0.0580582993298832
7663343-0001_532_I,-0.0569854727071959
7663343-0001_533_I,-0.057208583323855
7663343-0001_534_I,-0.0577224115910297
7663343-0001_535_I,-0.0570114269956589
7663343-0001_536_I,-0.0544194044183159
7663343-0001_537_I,-0.0506960562514217
7663343-0001_538_I,-0.0470546066381369
7663343-0001_539_I,-0.0447082797216219
7663343-0001_540_I,-0.0441612033074575
7663343-0001_541_I,-0.0434976843295041
7663343-0001_542_I,-0.04364978164335
7663343-0001_543_I,-0.0475234499402866
7663343-0001_544_I,-0.0570968428922126
7663343-0001_545_I,-0.0687302880696467
7663343-0001_546_I,-0.0779335084451775
7663343-0001_547_I,-0.0826150178547733
7663343-0001_548_I,-0.0863365518132014
7663343-0001_549_I,-0.093973295739972
7663343-0001_550_I,-0.1059137864441159
7663343-0001_551_I,-0.118222894688827
7663343-0001_552_I,-0.1271173664031696
7663343-0001_553_I,-0.1315720257051866
7663343-0001_554_I,-0.1336185269041933
7663343-0001_555_I,-0.1343644998056947
7663343-0001_556_I,-0.1328373065239234
7663343-0001_557_I,-0.1295280051585723
7663343-0001_558_I,-0.1240112934106764
7663343-0001_559_I,-0.1174498937836481
7663343-0001_560_I,-0.1080976491412648
7663343-0001_561_I,-0.0931962961712353
7663343-0001_562_I,-0.0728516513591902
7663343-0001_563_I,-0.05121554929197
7663343-0001_564_I,-0.0327390578793221
7663343-0001_565_I,-0.01866265141606
7663343-0001_566_I,-0.0046196782231005
7663343-0001_567_I,0.013229874578215
7663343-0001_568_I,0.0365158326343077
7663343-0001_569_I,0.0602103208172202
7663343-0001_570_I,0.0855743621094935
7663343-0001_571_I,0.1194339343768957
7663343-0001_572_I,0.1670439109536133
7663343-0001_573_I,0.2187797308040455
7663343-0001_574_I,0.2646689861877277
7663343-0001_575_I,0.2974967921832351
7663343-0001_576_I,0.3219281822253187
7663343-0001_577_I,0.3478469640369088
7663343-0001_578_I,0.3794855378706024
7663343-0001_579_I,0.4096364977868141
7663343-0001_580_I,0.4349883209404386
7663343-0001_581_I,0.4565721812087698
7663343-0001_582_I,0.4798907950172509
7663343-0001_583_I,0.5029593072300581
7663343-0001_584_I,0.5200122744161364
7663343-0001_585_I,0.5289323301723162
7663343-0001_586_I,0.5313765132720092
7663343-0001_587_I,0.5327420939016535
7663343-0001_588_I,0.536103525991906
7663343-0001_589_I,0.5366829989858208
7663343-0001_590_I,0.5325006560770214
7663343-0001_591_I,0.5245512388748299
7663343-0001_592_I,0.5159732169514905
7663343-0001_593_I,0.5094412149065444
7663343-0001_594_I,0.5032966389307519
7663343-0001_595_I,0.4963857635137061
7663343-0001_596_I,0.485934960108148
7663343-0001_597_I,0.4713252874298609
7663343-0001_598_I,0.4539527233564608
7663343-0001_599_I,0.4352088028060551
7663343-0001_600_I,0.4163954239886643
7663343-0001_601_I,0.4014356831257586
7663343-0001_602_I,0.3906125226887136
7663343-0001_603_I,0.3828217561656434
7663343-0001_604_I,0.3764916125810399
7663343-0001_605_I,0.3725527438533139
7663343-0001_606_I,0.361892047635635
7663343-0001_607_I,0.3418325667747197
7663343-0001_608_I,0.3116609100721302
7663343-0001_609_I,0.2721286411534163
7663343-0001_610_I,0.2255414708802512
7663343-0001_611_I,0.1820703702584737
7663343-0001_612_I,0.1414352847403891
7663343-0001_613_I,0.1055454280761867
7663343-0001_614_I,0.075235632357541
7663343-0001_615_I,0.047587872853162
7663343-0001_616_I,0.0218966446177396
7663343-0001_617_I,0.0008960708835683
7663343-0001_618_I,-0.0152517543766113
7663343-0001_619_I,-0.0254628971413406
7663343-0001_620_I,-0.0298149240787079
7663343-0001_621_I,-0.032152068878905
7663343-0001_622_I,-0.0335138359683045
7663343-0001_623_I,-0.0357059921898696
7663343-0001_624_I,-0.0400813446646573
7663343-0001_625_I,-0.0456672184822376
7663343-0001_626_I,-0.0508205701916515
7663343-0001_627_I,-0.0546770960698173
7663343-0001_628_I,-0.056953631497384
7663343-0001_629_I,-0.0577141550912762
7663343-0001_630_I,-0.0574989307277449
7663343-0001_631_I,-0.0573248407643312
7663343-0001_632_I,-0.0573248407643312
7663343-0001_633_I,-0.0573248407643312
7663343-0001_634_I,-0.0573248407643312
7663343-0001_635_I,-0.0573248407643312
7663343-0001_636_I,-0.0573248407643312
7663343-0001_637_I,-0.0573248407643312
7663343-0001_638_I,-0.0573248407643312
7663343-0001_639_I,-0.0573248407643312
7663343-0001_640_I,-0.0573248407643312
7663343-0001_641_I,-0.0573248407643312
7663343-0001_642_I,-0.0573248407643312
7663343-0001_643_I,-0.0573248407643312
7663343-0001_644_I,-0.0573248407643312
7663343-0001_645_I,-0.0573248407643312
7663343-0001_646_I,-0.0573248407643312
7663343-0001_647_I,-0.0573248407643312
7663343-0001_648_I,-0.0573248407643312
7663343-0001_649_I,-0.0573248407643312
7663343-0001_650_I,-0.0573248407643312
7663343-0001_651_I,-0.0573248407643312
7663343-0001_652_I,-0.0573248407643312
7663343-0001_653_I,-0.0573248407643312
7663343-0001_654_I,-0.0573248407643312
7663343-0001_655_I,-0.0573248407643312
7663343-0001_656_I,-0.0573248407643312
7663343-0001_657_I,-0.0573248407643312
7663343-0001_658_I,-0.0573248407643312
7663343-0001_659_I,-0.0573248407643312
7663343-0001_660_I,-0.0573248407643312
7663343-0001_661_I,-0.0573248407643312
7663343-0001_662_I,-0.0573248407643312
7663343-0001_663_I,-0.0573248407643312
7663343-0001_664_I,-0.0573248407643312
7663343-0001_665_I,-0.0573248407643312
7663343-0001_666_I,-0.0569054253867152
7663343-0001_667_I,-0.0570582631938126
7663343-0001_668_I,-0.0587134137094328
7663343-0001_669_I,-0.0620865085683955
7663343-0001_670_I,-0.0659643236275402
7663343-0001_671_I,-0.0691336347437064
7663343-0001_672_I,-0.0703812177737337
7663343-0001_673_I,-0.0703812177737337
7663343-0001_674_I,-0.0700636942675159
7663343-0001_675_I,-0.0700636942675159
7663343-0001_676_I,-0.0700636942675159
7663343-0001_677_I,-0.0700636942675159
7663343-0001_678_I,-0.0700636942675159
7663343-0001_679_I,-0.0700636942675159
7663343-0001_680_I,-0.0700636942675159
7663343-0001_681_I,-0.0700636942675159
7663343-0001_682_I,-0.0700636942675159
7663343-0001_683_I,-0.0700636942675159
7663343-0001_684_I,-0.0700636942675159
7663343-0001_685_I,-0.0700636942675159
7663343-0001_686_I,-0.0703035400316576
7663343-0001_687_I,-0.0704201306940969
7663343-0001_688_I,-0.0694623396980209
7663343-0001_689_I,-0.0665001075196201
7663343-0001_690_I,-0.0626533561523734
7663343-0001_691_I,-0.0591353097394412
7663343-0001_692_I,-0.0571591924239839
7663343-0001_693_I,-0.0568589224105247
7663343-0001_694_I,-0.0573041069532909
7663343-0001_695_I,-0.0573248407643312
7663343-0001_696_I,-0.0573248407643312
7663343-0001_697_I,-0.0573248407643312
7663343-0001_698_I,-0.0573248407643312
7663343-0001_699_I,-0.0573248407643312
7663343-0001_700_I,-0.0573248407643312
7663343-0001_701_I,-0.0573248407643312
7663343-0001_702_I,-0.0573248407643312
7663343-0001_703_I,-0.0573248407643312
7663343-0001_704_I,-0.0573248407643312
7663343-0001_705_I,-0.0573248407643312
7663343-0001_706_I,-0.0573248407643312
7663343-0001_707_I,-0.0573248407643312
7663343-0001_708_I,-0.0573248407643312
7663343-0001_709_I,-0.0573248407643312
7663343-0001_710_I,-0.0573248407643312
7663343-0001_711_I,-0.0573248407643312
7663343-0001_712_I,-0.0573248407643312
7663343-0001_713_I,-0.0573248407643312
7663343-0001_714_I,-0.0573248407643312
7663343-0001_715_I,-0.0573248407643312
7663343-0001_716_I,-0.0573248407643312
7663343-0001_717_I,-0.0573248407643312
7663343-0001_718_I,-0.0573248407643312
7663343-0001_719_I,-0.0573248407643312
7663343-0001_720_I,-0.0573248407643312
7663343-0001_721_I,-0.0573248407643312
7663343-0001_722_I,-0.0573248407643312
7663343-0001_723_I,-0.0573248407643312
7663343-0001_724_I,-0.0573248407643312
7663343-0001_725_I,-0.0573248407643312
7663343-0001_726_I,-0.0573248407643312
7663343-0001_727_I,-0.0573248407643312
7663343-0001_728_I,-0.0573248407643312
7663343-0001_729_I,-0.0573248407643312
7663343-0001_730_I,-0.0573248407643312
7663343-0001_731_I,-0.0573248407643312
7663343-0001_732_I,-0.0573248407643312
7663343-0001_733_I,-0.0573248407643312
7663343-0001_734_I,-0.0573248407643312
7663343-0001_735_I,-0.0573248407643312
7663343-0001_736_I,-0.0573248407643312
7663343-0001_737_I,-0.0573248407643312
7663343-0001_738_I,-0.0573248407643312
7663343-0001_739_I,-0.0573248407643312
7663343-0001_740_I,-0.0573248407643312
7663343-0001_741_I,-0.0573248407643312
7663343-0001_742_I,-0.0573248407643312
7663343-0001_743_I,-0.0573248407643312
7663343-0001_744_I,-0.0573248407643312
7663343-0001_745_I,-0.0573248407643312
7663343-0001_746_I,-0.0573248407643312
7663343-0001_747_I,-0.0573248407643312
7663343-0001_748_I,-0.0573248407643312
7663343-0001_749_I,-0.0573248407643312
7663343-0001_750_I,-0.0573248407643312
7663343-0001_751_I,-0.0573248407643312
7663343-0001_752_I,-0.0573248407643312
7663343-0001_753_I,-0.0573248407643312
7663343-0001_754_I,-0.0573248407643312
7663343-0001_755_I,-0.0576731687898089
7663343-0001_756_I,-0.057626962010919
7663343-0001_757_I,-0.056256160903852
7663343-0001_758_I,-0.0530252407491659
7663343-0001_759_I,-0.0491474256900212
7663343-0001_760_I,-0.0458359398695784
7663343-0001_761_I,-0.0443040074309979
7663343-0001_762_I,-0.0442401769127237
7663343-0001_763_I,-0.0450408722655065
7663343-0001_764_I,-0.0446744021553685
7663343-0001_765_I,-0.0428575649382962
7663343-0001_766_I,-0.0393948333712466
7663343-0001_767_I,-0.0345672986924666
7663343-0001_768_I,-0.0286581255213072
7663343-0001_769_I,-0.0238918296344214
7663343-0001_770_I,-0.0207652079542008
7663343-0001_771_I,-0.0192469376161093
7663343-0001_772_I,-0.0181234242303609
7663343-0001_773_I,-0.0157523278145852
7663343-0001_774_I,-0.011946970020094
7663343-0001_775_I,-0.0083896034155103
7663343-0001_776_I,-0.0062955255250985
7663343-0001_777_I,-0.0059166151283363
7663343-0001_778_I,-0.006322479479451
7663343-0001_779_I,-0.0063694267515923
7663343-0001_780_I,-0.0064933112725583
7663343-0001_781_I,-0.006783769750436
7663343-0001_782_I,-0.0061740476071997
7663343-0001_783_I,-0.0037337520970768
7663343-0001_784_I,-6.097961925614188e-05
7663343-0001_785_I,0.0035521091024984
7663343-0001_786_I,0.0056922086484872
7663343-0001_787_I,0.0068155369109228
7663343-0001_788_I,0.0081931875805656
7663343-0001_789_I,0.0115933844925311
7663343-0001_790_I,0.0176313664647786
7663343-0001_791_I,0.0261537032956096
7663343-0001_792_I,0.0350325135776842
7663343-0001_793_I,0.0434522920931908
7663343-0001_794_I,0.0502001849455945
7663343-0001_795_I,0.0553886360351266
7663343-0001_796_I,0.0604133640667652
7663343-0001_797_I,0.0651927666842016
7663343-0001_798_I,0.0683542655965651
7663343-0001_799_I,0.0698901966987034
7663343-0001_800_I,0.0710138211584395
7663343-0001_801_I,0.0733587411377768
7663343-0001_802_I,0.0771422173566879
7663343-0001_803_I,0.0807125796178344
7663343-0001_804_I,0.0828457925765848
7663343-0001_805_I,0.0832509904837732
7663343-0001_806_I,0.082482506587428
7663343-0001_807_I,0.0825141256492645
7663343-0001_808_I,0.0839945197575448
7663343-0001_809_I,0.0872802364128375
7663343-0001_810_I,0.0911580514719822
7663343-0001_811_I,0.0940838884070747
7663343-0001_812_I,0.0955262211622309
7663343-0001_813_I,0.0968926533591144
7663343-0001_814_I,0.0997274096242797
7663343-0001_815_I,0.1036052246834244
7663343-0001_816_I,0.1066656832916288
7663343-0001_817_I,0.1082202007743783
7663343-0001_818_I,0.1094491233744693
7663343-0001_819_I,0.1117108859616698
7663343-0001_820_I,0.1159029293320633
7663343-0001_821_I,0.1210948977645398
7663343-0001_822_I,0.1262865699997157
7663343-0001_823_I,0.1312880095185966
7663343-0001_824_I,0.1367461112256408
7663343-0001_825_I,0.1415384354503148
7663343-0001_826_I,0.1449311904051032
7663343-0001_827_I,0.1466665363398545
7663343-0001_828_I,0.1469633260350319
7663343-0001_829_I,0.1465163643084623
7663343-0001_830_I,0.1464968152866243
7663343-0001_831_I,0.1466480980578936
7663343-0001_832_I,0.1468975332096414
7663343-0001_833_I,0.1462054311921824
7663343-0001_834_I,0.143641732481707
7663343-0001_835_I,0.1399278256037687
7663343-0001_836_I,0.13638334358176
7663343-0001_837_I,0.134325364737356
7663343-0001_838_I,0.1332021105242456
7663343-0001_839_I,0.1311527954508834
7663343-0001_840_I,0.1276155332380764
7663343-0001_841_I,0.1238972944746172
7663343-0001_842_I,0.1213206001075789
7663343-0001_843_I,0.120619834319078
7663343-0001_844_I,0.1208649375853049
7663343-0001_845_I,0.1210191082802548
7663343-0001_846_I,0.1210356953290871
7663343-0001_847_I,0.1214871740644905
7663343-0001_848_I,0.1211991592143427
7663343-0001_849_I,0.1194739580371361
7663343-0001_850_I,0.1160898298287269
7663343-0001_851_I,0.1113016523662611
7663343-0001_852_I,0.105840588686211
7663343-0001_853_I,0.1008395194139559
7663343-0001_854_I,0.0958383760923757
7663343-0001_855_I,0.0908371216968077
7663343-0001_856_I,0.0858356451532644
7663343-0001_857_I,0.0812373671851305
7663343-0001_858_I,0.076107600185775
7663343-0001_859_I,0.0693736286064983
7663343-0001_860_I,0.0607693561973954
7663343-0001_861_I,0.0525560642250531
7663343-0001_862_I,0.0468772585044169
7663343-0001_863_I,0.0442642429433955
7663343-0001_864_I,0.0429028461006218
7663343-0001_865_I,0.0406494140625
7663343-0001_866_I,0.0362403321201092
7663343-0001_867_I,0.0309396222536586
7663343-0001_868_I,0.0258201110858356
7663343-0001_869_I,0.0208187826409425
7663343-0001_870_I,0.0158178244426751
7663343-0001_871_I,0.0108168662444078
7663343-0001_872_I,0.0055470349465423
7663343-0001_873_I,0.0004720274231308
7663343-0001_874_I,-0.0034857979318319
7663343-0001_875_I,-0.0058803679836783
7663343-0001_876_I,-0.006741894857067
7663343-0001_877_I,-0.0065772091579466
7663343-0001_878_I,-0.0063694267515923
7663343-0001_879_I,-0.0063694267515923
7663343-0001_880_I,-0.0059301661548377
7663343-0001_881_I,-0.0061126977413178
7663343-0001_882_I,-0.0078474142568054
7663343-0001_883_I,-0.011260310628033
7663343-0001_884_I,-0.0151381627118403
7663343-0001_885_I,-0.0182677463650667
7663343-0001_886_I,-0.0194358374445518
7663343-0001_887_I,-0.0194058844925311
7663343-0001_888_I,-0.019108280254777
7663343-0001_889_I,-0.019108280254777
7663343-0001_890_I,-0.018758767440097
7663343-0001_891_I,-0.0188067514027904
7663343-0001_892_I,-0.0201822916666666
7663343-0001_893_I,-0.0234155813997573
7663343-0001_894_I,-0.027293396458902
7663343-0001_895_I,-0.0306025127009402
7663343-0001_896_I,-0.0321297059827115
7663343-0001_897_I,-0.03219057452798
7663343-0001_898_I,-0.0313927670988778
7663343-0001_899_I,-0.0317629766999355
7663343-0001_900_I,-0.0338438367858091
7663343-0001_901_I,-0.0373967974555467
7663343-0001_902_I,-0.041208634565988
7663343-0001_903_I,-0.0440661239739725
7663343-0001_904_I,-0.0449539753824499
7663343-0001_905_I,-0.0448025815371929
7663343-0001_906_I,-0.0445859872611465
7663343-0001_907_I,-0.0445859872611465
7663343-0001_908_I,-0.0445859872611465
7663343-0001_909_I,-0.0445859872611465
7663343-0001_910_I,-0.0445859872611465
7663343-0001_911_I,-0.0445859872611465
7663343-0001_912_I,-0.0445859872611465
7663343-0001_913_I,-0.0445859872611465
7663343-0001_914_I,-0.0445859872611465
7663343-0001_915_I,-0.0445859872611465
7663343-0001_916_I,-0.0445859872611465
7663343-0001_917_I,-0.0445859872611465
7663343-0001_918_I,-0.0445859872611465
7663343-0001_919_I,-0.0445859872611465
7663343-0001_920_I,-0.0445859872611465
7663343-0001_921_I,-0.0445859872611465
7663343-0001_922_I,-0.0445859872611465
7663343-0001_923_I,-0.0445859872611465
7663343-0001_924_I,-0.0445859872611465
7663343-0001_925_I,-0.0445506657330528
7663343-0001_926_I,-0.0441273627658667
7663343-0001_927_I,-0.044471395930486
7663343-0001_928_I,-0.0465131579726835
7663343-0001_929_I,-0.0500530859611958
7663343-0001_930_I,-0.0538779557528625
7663343-0001_931_I,-0.0567745432045231
7663343-0001_932_I,-0.0576885710494389
7663343-0001_933_I,-0.0573439454902184
7663343-0001_934_I,-0.0569516321656051
7663343-0001_935_I,-0.0578082347588717
7663343-0001_936_I,-0.0606185547467395
7663343-0001_937_I,-0.0644146193509251
7663343-0001_938_I,-0.0679832044282681
7663343-0001_939_I,-0.0701110858356081
7663343-0001_940_I,-0.0705127293751896
7663343-0001_941_I,-0.070118194570822
7663343-0001_942_I,-0.0700636942675159
7663343-0001_943_I,-0.0700636942675159
7663343-0001_944_I,-0.0700636942675159
7663343-0001_945_I,-0.0700636942675159
7663343-0001_946_I,-0.0700636942675159
7663343-0001_947_I,-0.0700636942675159
7663343-0001_948_I,-0.0700636942675159
7663343-0001_949_I,-0.0700636942675159
7663343-0001_950_I,-0.0700636942675159
7663343-0001_951_I,-0.0703508575504247
7663343-0001_952_I,-0.0703963978853882
7663343-0001_953_I,-0.0692702557485972
7663343-0001_954_I,-0.0661616650790491
7663343-0001_955_I,-0.0622838500199045
7663343-0001_956_I,-0.0588500347143236
7663343-0001_957_I,-0.0570734433054671
7663343-0001_958_I,-0.0568750651634061
7663343-0001_959_I,-0.0573248407643312
7663343-0001_960_I,-0.0573248407643312
7663343-0001_961_I,-0.0573248407643312
7663343-0001_962_I,-0.0573248407643312
7663343-0001_963_I,-0.0573248407643312
7663343-0001_964_I,-0.0569117195793524
7663343-0001_965_I,-0.0570551160974939
7663343-0001_966_I,-0.0585325482327684
7663343-0001_967_I,-0.0616455818618252
7663343-0001_968_I,-0.0662191643800235
7663343-0001_969_I,-0.0719701311680126
7663343-0001_970_I,-0.0769585380056681
7663343-0001_971_I,-0.0806169819390734
7663343-0001_972_I,-0.0826622983488778
7663343-0001_973_I,-0.0832247770226722
7663343-0001_974_I,-0.082910659785411
7663343-0001_975_I,-0.0828025477707007
7663343-0001_976_I,-0.0828025477707007
7663343-0001_977_I,-0.0828025477707007
7663343-0001_978_I,-0.0828025477707007
7663343-0001_979_I,-0.0828025477707007
7663343-0001_980_I,-0.0828025477707007
7663343-0001_981_I,-0.0828025477707007
7663343-0001_982_I,-0.0828025477707007
7663343-0001_983_I,-0.0828025477707007
7663343-0001_984_I,-0.0830360993422051
7663343-0001_985_I,-0.0831620572442751
7663343-0001_986_I,-0.0822233339494238
7663343-0001_987_I,-0.0792895367118782
7663343-0001_988_I,-0.0754522636582499
7663343-0001_989_I,-0.0717360612512322
7663343-0001_990_I,-0.0695382402562936
7663343-0001_991_I,-0.0700230782126744
7663343-0001_992_I,-0.0731905751203746
7663343-0001_993_I,-0.0769874542671368
7663343-0001_994_I,-0.0805822528055809
7663343-0001_995_I,-0.0827887745962239
7663343-0001_996_I,-0.0832428450580073
7663343-0001_997_I,-0.08323395913899
7663343-0001_998_I,-0.0830991893672278
7663343-0001_999_I,-0.0816837735417615
7663343-0001_1000_I,-0.0784305275155445
7663343-0001_1001_I,-0.0745526754317372
7663343-0001_1002_I,-0.0712634414335002
7663343-0001_1003_I,-0.0697760496639938
7663343-0001_1004_I,-0.0696862648572566
7663343-0001_1005_I,-0.0700636942675159
7663343-0001_1006_I,-0.0700636942675159
7663343-0001_1007_I,-0.0700636942675159
7663343-0001_1008_I,-0.0700636942675159
7663343-0001_1009_I,-0.0700636942675159
7663343-0001_1010_I,-0.0700636942675159
7663343-0001_1011_I,-0.0700636942675159
7663343-0001_1012_I,-0.0700636942675159
7663343-0001_1013_I,-0.0700636942675159
7663343-0001_1014_I,-0.0700636942675159
7663343-0001_1015_I,-0.0700636942675159
7663343-0001_1016_I,-0.0700636942675159
7663343-0001_1017_I,-0.0700636942675159
7663343-0001_1018_I,-0.0700636942675159
7663343-0001_1019_I,-0.0700636942675159
7663343-0001_1020_I,-0.0700636942675159
7663343-0001_1021_I,-0.0700636942675159
7663343-0001_1022_I,-0.0700636942675159
7663343-0001_1023_I,-0.0700636942675159
7663343-0001_1024_I,-0.0700636942675159
7663343-0001_1025_I,-0.0700636942675159
7663343-0001_1026_I,-0.0700636942675159
7663343-0001_1027_I,-0.0700636942675159
7663343-0001_1028_I,-0.0700636942675159
7663343-0001_1029_I,-0.0700636942675159
7663343-0001_1030_I,-0.0700636942675159
7663343-0001_1031_I,-0.0700636942675159
7663343-0001_1032_I,-0.0700636942675159
7663343-0001_1033_I,-0.0700636942675159
7663343-0001_1034_I,-0.0700636942675159
7663343-0001_1035_I,-0.0700636942675159
7663343-0001_1036_I,-0.0700636942675159
7663343-0001_1037_I,-0.0700636942675159
7663343-0001_1038_I,-0.0700636942675159
7663343-0001_1039_I,-0.0700636942675159
7663343-0001_1040_I,-0.0700636942675159
7663343-0001_1041_I,-0.0700636942675159
7663343-0001_1042_I,-0.0700636942675159
7663343-0001_1043_I,-0.0700636942675159
7663343-0001_1044_I,-0.0700636942675159
7663343-0001_1045_I,-0.0700636942675159
7663343-0001_1046_I,-0.0700636942675159
7663343-0001_1047_I,-0.0700636942675159
7663343-0001_1048_I,-0.0700636942675159
7663343-0001_1049_I,-0.0700636942675159
7663343-0001_1050_I,-0.0700636942675159
7663343-0001_1051_I,-0.0700636942675159
7663343-0001_1052_I,-0.0700636942675159
7663343-0001_1053_I,-0.0700636942675159
7663343-0001_1054_I,-0.0700636942675159
7663343-0001_1055_I,-0.0700636942675159
7663343-0001_1056_I,-0.0700636942675159
7663343-0001_1057_I,-0.0700636942675159
7663343-0001_1058_I,-0.0700636942675159
7663343-0001_1059_I,-0.0700636942675159
7663343-0001_1060_I,-0.0700636942675159
7663343-0001_1061_I,-0.0700636942675159
7663343-0001_1062_I,-0.0700636942675159
7663343-0001_1063_I,-0.0700636942675159
7663343-0001_1064_I,-0.0700636942675159
7663343-0001_1065_I,-0.0700636942675159
7663343-0001_1066_I,-0.0700636942675159
7663343-0001_1067_I,-0.0700636942675159
7663343-0001_1068_I,-0.0700636942675159
7663343-0001_1069_I,-0.0700636942675159
7663343-0001_1070_I,-0.0700636942675159
7663343-0001_1071_I,-0.070486738062064
7663343-0001_1072_I,-0.0703285316788937
7663343-0001_1073_I,-0.0686586823722324
7663343-0001_1074_I,-0.0652782196054178
7663343-0001_1075_I,-0.0614003675216106
7663343-0001_1076_I,-0.058238350263971
7663343-0001_1077_I,-0.0570053919756597
7663343-0001_1078_I,-0.0571286100526994
7663343-0001_1079_I,-0.0577423308594935
7663343-0001_1080_I,-0.0571514172448438
7663343-0001_1081_I,-0.0547396307249014
7663343-0001_1082_I,-0.0510764106100243
7663343-0001_1083_I,-0.0473749810433728
7663343-0001_1084_I,-0.0448485661681074
7663343-0001_1085_I,-0.044181233649909
7663343-0001_1086_I,-0.0444429239649681
7663343-0001_1087_I,-0.0445859872611465
7663343-0001_1088_I,-0.0445859872611465
7663343-0001_1089_I,-0.0445859872611465
7663343-0001_1090_I,-0.0445859872611465
7663343-0001_1091_I,-0.0448294614422202
7663343-0001_1092_I,-0.0449405354299363
7663343-0001_1093_I,-0.043972044306377
7663343-0001_1094_I,-0.0409935953257696
7663343-0001_1095_I,-0.0371414383577874
7663343-0001_1096_I,-0.0338273978356271
7663343-0001_1097_I,-0.0320458821466485
7663343-0001_1098_I,-0.0309224428102252
7663343-0001_1099_I,-0.0285966275567751
7663343-0001_1100_I,-0.0248288868194571
7663343-0001_1101_I,-0.0215563879687026
7663343-0001_1102_I,-0.0198859462674401
7663343-0001_1103_I,-0.0180631110550311
7663343-0001_1104_I,-0.0136671358431907
7663343-0001_1105_I,-0.0062164778705072
7663343-0001_1106_I,0.0024245230038671
7663343-0001_1107_I,0.0101123609649871
7663343-0001_1108_I,0.0156726877653927
7663343-0001_1109_I,0.0203583069125341
7663343-0001_1110_I,0.0252524489592811
7663343-0001_1111_I,0.0302534441822111
7663343-0001_1112_I,0.0352547356024416
7663343-0001_1113_I,0.0402561010719973
7663343-0001_1114_I,0.0452573924922278
7663343-0001_1115_I,0.0502587209371209
7663343-0001_1116_I,0.0552408335821391
7663343-0001_1117_I,0.0597941636099105
7663343-0001_1118_I,0.0650906896894905
7663343-0001_1119_I,0.0718257720086442
7663343-0001_1120_I,0.0802185595451358
7663343-0001_1121_I,0.0900115087461139
7663343-0001_1122_I,0.1009218252388536
7663343-0001_1123_I,0.1107251043206893
7663343-0001_1124_I,0.1191379592242949
7663343-0001_1125_I,0.1258967003028322
7663343-0001_1126_I,0.1312135899468268
7663343-0001_1127_I,0.1353716817016417
7663343-0001_1128_I,0.1404790858048037
7663343-0001_1129_I,0.1470803980180847
7663343-0001_1130_I,0.1554271638989992
7663343-0001_1131_I,0.1643062703783744
7663343-0001_1132_I,0.1725045303377124
7663343-0001_1133_I,0.1788087566585154
7663343-0001_1134_I,0.1838308189144489
7663343-0001_1135_I,0.18850088770331
7663343-0001_1136_I,0.1935022531728656
7663343-0001_1137_I,0.1985033224451207
7663343-0001_1138_I,0.2035045398160261
7663343-0001_1139_I,0.2085608498848387
7663343-0001_1140_I,0.2139556394188848
7663343-0001_1141_I,0.2185532139184298
7663343-0001_1142_I,0.221694238192391
7663343-0001_1143_I,0.2231956623090121
7663343-0001_1144_I,0.2233614217233471
7663343-0001_1145_I,0.2234010381122992
7663343-0001_1146_I,0.2231317947660754
7663343-0001_1147_I,0.2212025136487718
7663343-0001_1148_I,0.2177001286681075
7663343-0001_1149_I,0.2138378639672431
7663343-0001_1150_I,0.2108289436893389
7663343-0001_1151_I,0.2098399409027148
7663343-0001_1152_I,0.2101219207328634
7663343-0001_1153_I,0.2105768057372234
7663343-0001_1154_I,0.209795363208978
7663343-0001_1155_I,0.2070974871213415
7663343-0001_1156_I,0.2033388544510163
7663343-0001_1157_I,0.1997326893411626
7663343-0001_1158_I,0.197492215934941
7663343-0001_1159_I,0.1970155974536512
7663343-0001_1160_I,0.1973727743734836
7663343-0001_1161_I,0.1974522292993632
7663343-0001_1162_I,0.1973608524321354
7663343-0001_1163_I,0.1970216324736505
7663343-0001_1164_I,0.1975339057049971
7663343-0001_1165_I,0.1995206490986125
7663343-0001_1166_I,0.2031288875895702
7663343-0001_1167_I,0.2080289535823288
7663343-0001_1168_I,0.2134152274439834
7663343-0001_1169_I,0.2184166669628642
7663343-0001_1170_I,0.2231558237720846
7663343-0001_1171_I,0.2280739207755158
7663343-0001_1172_I,0.2340982776719368
7663343-0001_1173_I,0.2412103080807365
7663343-0001_1174_I,0.250575067059069
7663343-0001_1175_I,0.262839893807344
7663343-0001_1176_I,0.2766961886516153
7663343-0001_1177_I,0.2896839959859344
7663343-0001_1178_I,0.3003072972944156
7663343-0001_1179_I,0.3073392803827346
7663343-0001_1180_I,0.3123374987559716
7663343-0001_1181_I,0.3170386312367306
7663343-0001_1182_I,0.3212846565651542
7663343-0001_1183_I,0.3240153365038295
7663343-0001_1184_I,0.3251651003753415
7663343-0001_1185_I,0.3251446627616017
7663343-0001_1186_I,0.3248407643312104
7663343-0001_1187_I,0.3248407643312104
7663343-0001_1188_I,0.3251839829532532
7663343-0001_1189_I,0.3251455143288408
7663343-0001_1190_I,0.3238776047590616
7663343-0001_1191_I,0.3210091190262931
7663343-0001_1192_I,0.3166452071722402
7663343-0001_1193_I,0.3119640680092701
7663343-0001_1194_I,0.3068873203267177
7663343-0001_1195_I,0.2995822063026049
7663343-0001_1196_I,0.2887387563504704
7663343-0001_1197_I,0.2756303596901542
7663343-0001_1198_I,0.2622604948627542
7663343-0001_1199_I,0.2504443329755272
7663343-0001_1200_I,0.2392615890155826
7663343-0001_1201_I,0.2271434169557554
7663343-0001_1202_I,0.213046535854091
7663343-0001_1203_I,0.197900820111086
7663343-0001_1204_I,0.1826741684556985
7663343-0001_1205_I,0.1676700720470315
7663343-0001_1206_I,0.1522418211039393
7663343-0001_1207_I,0.1373979304102215
7663343-0001_1208_I,0.1235778456859456
7663343-0001_1209_I,0.1112645906790265
7663343-0001_1210_I,0.1023260596162231
7663343-0001_1211_I,0.0972014760696277
7663343-0001_1212_I,0.0949013929566652
7663343-0001_1213_I,0.0947973536548378
7663343-0001_1214_I,0.0951245035733243
7663343-0001_1215_I,0.0957189715555809
7663343-0001_1216_I,0.0984705704286094
7663343-0001_1217_I,0.1021102058334282
7663343-0001_1218_I,0.1046420633340917
7663343-0001_1219_I,0.1046906767160487
7663343-0001_1220_I,0.1005569842138687
7663343-0001_1221_I,0.0931030310462163
7663343-0001_1222_I,0.0842622080679406
7663343-0001_1223_I,0.074445155811628
7663343-0001_1224_I,0.064905936623256
7663343-0001_1225_I,0.0542530896340423
7663343-0001_1226_I,0.0397344235763573
7663343-0001_1227_I,0.0224524218276084
7663343-0001_1228_I,0.0067256040055353
7663343-0001_1229_I,-0.0036193829143918
7663343-0001_1230_I,-0.0075654714513193
7663343-0001_1231_I,-0.0088689617218304
7663343-0001_1232_I,-0.0113977461755004
7663343-0001_1233_I,-0.0152755612346451
7663343-0001_1234_I,-0.0183628256985517
7663343-0001_1235_I,-0.0194463154240597
7663343-0001_1236_I,-0.019384780434865
7663343-0001_1237_I,-0.019108280254777
7663343-0001_1238_I,-0.019108280254777
7663343-0001_1239_I,-0.019108280254777
7663343-0001_1240_I,-0.019108280254777
7663343-0001_1241_I,-0.0189982429576129
7663343-0001_1242_I,-0.0186870136440324
7663343-0001_1243_I,-0.019255268165188
7663343-0001_1244_I,-0.0216330660448893
7663343-0001_1245_I,-0.0252849566130194
7663343-0001_1246_I,-0.0289977157264179
7663343-0001_1247_I,-0.0315581192419245
7663343-0001_1248_I,-0.0322481108536169
7663343-0001_1249_I,-0.0314360119047619
7663343-0001_1250_I,-0.0311753582802548
7663343-0001_1251_I,-0.0333774741360517
7663343-0001_1252_I,-0.0395695897785866
7663343-0001_1253_I,-0.0473252569215385
7663343-0001_1254_I,-0.0537461109294434
7663343-0001_1255_I,-0.057104766170003
7663343-0001_1256_I,-0.0594122912401426
7663343-0001_1257_I,-0.0643895906790264
7663343-0001_1258_I,-0.0720713936201471
7663343-0001_1259_I,-0.0791191862393843
7663343-0001_1260_I,-0.0831065202504171
7663343-0001_1261_I,-0.0837305709380687
7663343-0001_1262_I,-0.0828517905719215
7663343-0001_1263_I,-0.0828025477707007
7663343-0001_1264_I,-0.0828025477707007
7663343-0001_1265_I,-0.0828025477707007
7663343-0001_1266_I,-0.0828025477707007
7663343-0001_1267_I,-0.0828025477707007
7663343-0001_1268_I,-0.0828025477707007
7663343-0001_1269_I,-0.0828025477707007
7663343-0001_1270_I,-0.0828025477707007
7663343-0001_1271_I,-0.0828025477707007
7663343-0001_1272_I,-0.0828025477707007
7663343-0001_1273_I,-0.0828025477707007
7663343-0001_1274_I,-0.0828025477707007
7663343-0001_1275_I,-0.0828025477707007
7663343-0001_1276_I,-0.0828025477707007
7663343-0001_1277_I,-0.0828025477707007
7663343-0001_1278_I,-0.0828025477707007
7663343-0001_1279_I,-0.0828025477707007
7663343-0001_1280_I,-0.0828025477707007
7663343-0001_1281_I,-0.0828025477707007
7663343-0001_1282_I,-0.0828025477707007
7663343-0001_1283_I,-0.0828025477707007
7663343-0001_1284_I,-0.0828025477707007
7663343-0001_1285_I,-0.0828025477707007
7663343-0001_1286_I,-0.0828025477707007
7663343-0001_1287_I,-0.0828025477707007
7663343-0001_1288_I,-0.0828025477707007
7663343-0001_1289_I,-0.0828025477707007
7663343-0001_1290_I,-0.0828025477707007
7663343-0001_1291_I,-0.0828025477707007
7663343-0001_1292_I,-0.0826651122232333
7663343-0001_1293_I,-0.0823949802851077
7663343-0001_1294_I,-0.0830453555078481
7663343-0001_1295_I,-0.0855466306372271
7663343-0001_1296_I,-0.0892397296547999
7663343-0001_1297_I,-0.092911428417406
7663343-0001_1298_I,-0.0953485027818851
7663343-0001_1299_I,-0.0959561885686799
7663343-0001_1300_I,-0.0956645453016
7663343-0001_1301_I,-0.0955414012738854
7663343-0001_1302_I,-0.0955414012738854
7663343-0001_1303_I,-0.0955414012738854
7663343-0001_1304_I,-0.0955414012738854
7663343-0001_1305_I,-0.0958047947234229
7663343-0001_1306_I,-0.0958859898084433
7663343-0001_1307_I,-0.0948549270051373
7663343-0001_1308_I,-0.0917938760023317
7663343-0001_1309_I,-0.087916060943187
7663343-0001_1310_I,-0.0844347059708637
7663343-0001_1311_I,-0.0825630352285222
7663343-0001_1312_I,-0.0823290023364043
7663343-0001_1313_I,-0.0828025477707007
7663343-0001_1314_I,-0.0828025477707007
7663343-0001_1315_I,-0.0828025477707007
7663343-0001_1316_I,-0.0828025477707007
7663343-0001_1317_I,-0.0828025477707007
7663343-0001_1318_I,-0.0828025477707007
7663343-0001_1319_I,-0.0828025477707007
7663343-0001_1320_I,-0.0828025477707007
7663343-0001_1321_I,-0.0828025477707007
7663343-0001_1322_I,-0.0828025477707007
7663343-0001_1323_I,-0.0831469511819457
7663343-0001_1324_I,-0.0831067053737299
7663343-0001_1325_I,-0.0817514176002806
7663343-0001_1326_I,-0.0785282356000721
7663343-0001_1327_I,-0.0746503835162648
7663343-0001_1328_I,-0.0713310854920193
7663343-0001_1329_I,-0.0697835656704959
7663343-0001_1330_I,-0.0697101827892782
7663343-0001_1331_I,-0.0705205045543297
7663343-0001_1332_I,-0.0701655861389142
7663343-0001_1333_I,-0.0681074962205225
7663343-0001_1334_I,-0.0645621256066121
7663343-0001_1335_I,-0.0607426984403435
7663343-0001_1336_I,-0.0578624388648772
7663343-0001_1337_I,-0.0569592962707575
7663343-0001_1338_I,-0.057103211134175
7663343-0001_1339_I,-0.0573248407643312
7663343-0001_1340_I,-0.0573248407643312
7663343-0001_1341_I,-0.057750328186609
7663343-0001_1342_I,-0.057588382312519
7663343-0001_1343_I,-0.0559089436182514
7663343-0001_1344_I,-0.0525237046699651
7663343-0001_1345_I,-0.0486458896108204
7663343-0001_1346_I,-0.0454887225839779
7663343-0001_1347_I,-0.0442654277325978
7663343-0001_1348_I,-0.0442745357995905
7663343-0001_1349_I,-0.0445859872611465
7663343-0001_1350_I,-0.0445859872611465
7663343-0001_1351_I,-0.0445859872611465
7663343-0001_1352_I,-0.0445859872611465
7663343-0001_1353_I,-0.0445859872611465
7663343-0001_1354_I,-0.0445859872611465
7663343-0001_1355_I,-0.0445859872611465
7663343-0001_1356_I,-0.0448767789609873
7663343-0001_1357_I,-0.0449169507198779
7663343-0001_1358_I,-0.0438063219167046
7663343-0001_1359_I,-0.0411213304116432
7663343-0001_1360_I,-0.0369147733735214
7663343-0001_1361_I,-0.031469482199727
7663343-0001_1362_I,-0.0261752516492265
7663343-0001_1363_I,-0.0221499673590575
7663343-0001_1364_I,-0.0196764607266075
7663343-0001_1365_I,-0.0187471046713868
7663343-0001_1366_I,-0.01907895672202
7663343-0001_1367_I,-0.0194840435552206
7663343-0001_1368_I,-0.018642843221584
7663343-0001_1369_I,-0.0158553304258606
7663343-0001_1370_I,-0.0120668188528397
7663343-0001_1371_I,-0.0084905326456816
7663343-0001_1372_I,-0.006339695947547
7663343-0001_1373_I,-0.0059228352716484
7663343-0001_1374_I,-0.00668176680505
7663343-0001_1375_I,-0.0066597741554822
7663343-0001_1376_I,-0.0053060043931983
7663343-0001_1377_I,-0.0023375150468228
7663343-0001_1378_I,0.002112219975072
7663343-0001_1379_I,0.0074331082826243
7663343-0001_1380_I,0.0125386981773203
7663343-0001_1381_I,0.0175400266222133
7663343-0001_1382_I,0.0225412810177813
7663343-0001_1383_I,0.0275425724380118
7663343-0001_1384_I,0.0322619580774189
7663343-0001_1385_I,0.0372099710082082
7663343-0001_1386_I,0.0433385893544321
7663343-0001_1387_I,0.05188247453888
7663343-0001_1388_I,0.0604589414263914
7663343-0001_1389_I,0.0669248174239839
7663343-0001_1390_I,0.0702039066646762
7663343-0001_1391_I,0.0715652294581248
7663343-0001_1392_I,0.0736057326617948
7663343-0001_1393_I,0.0774484483408212
7663343-0001_1394_I,0.0809705304419738
7663343-0001_1395_I,0.0829587548220921
7663343-0001_1396_I,0.0832672072859797
7663343-0001_1397_I,0.0828259473574462
7663343-0001_1398_I,0.0828025477707007
7663343-0001_1399_I,0.0828025477707007
7663343-0001_1400_I,0.0828025477707007
7663343-0001_1401_I,0.0828025477707007
7663343-0001_1402_I,0.0828025477707007
7663343-0001_1403_I,0.0828025477707007
7663343-0001_1404_I,0.0828025477707007
7663343-0001_1405_I,0.0828025477707007
7663343-0001_1406_I,0.0828025477707007
7663343-0001_1407_I,0.0828025477707007
7663343-0001_1408_I,0.0828025477707007
7663343-0001_1409_I,0.0828025477707007
7663343-0001_1410_I,0.0828025477707007
7663343-0001_1411_I,0.0828025477707007
7663343-0001_1412_I,0.0825292317115939
7663343-0001_1413_I,0.0824628464916022
7663343-0001_1414_I,0.0835337848564984
7663343-0001_1415_I,0.0866147921524303
7663343-0001_1416_I,0.0904926442362375
7663343-0001_1417_I,0.0939541169647597
7663343-0001_1418_I,0.0957859861948363
7663343-0001_1419_I,0.0960049500492873
7663343-0001_1420_I,0.0950972534216713
7663343-0001_1421_I,0.0952871158913407
7663343-0001_1422_I,0.0970413814286663
7663343-0001_1423_I,0.1004640523108129
7663343-0001_1424_I,0.1043419043946202
7663343-0001_1425_I,0.1074617135369276
7663343-0001_1426_I,0.1086102555945747
7663343-0001_1427_I,0.1087116661453595
7663343-0001_1428_I,0.1086871928433994
7663343-0001_1429_I,0.1080329670557515
7663343-0001_1430_I,0.1055262122763119
7663343-0001_1431_I,0.1018313360749356
7663343-0001_1432_I,0.0982553090404156
7663343-0001_1433_I,0.0961596020648507
7663343-0001_1434_I,0.0950360886791023
7663343-0001_1435_I,0.0933341760146535
7663343-0001_1436_I,0.0898405288543563
7663343-0001_1437_I,0.0849366122966902
7663343-0001_1438_I,0.0795527820627654
7663343-0001_1439_I,0.0745515276671975
7663343-0001_1440_I,0.0692856209835646
7663343-0001_1441_I,0.0642050227361048
7663343-0001_1442_I,0.060235682711082
7663343-0001_1443_I,0.0578275986573969
7663343-0001_1444_I,0.056954409015298
7663343-0001_1445_I,0.0573328380914468
7663343-0001_1446_I,0.0576912738498067
7663343-0001_1447_I,0.0567940922263611
7663343-0001_1448_I,0.0539226074959243
7663343-0001_1449_I,0.0501061052779989
7663343-0001_1450_I,0.0465578097157454
7663343-0001_1451_I,0.0444909449523241
7663343-0001_1452_I,0.0441300655662344
7663343-0001_1453_I,0.0449356481744768
7663343-0001_1454_I,0.0448670044500682
7663343-0001_1455_I,0.0433273708816727
7663343-0001_1456_I,0.0400120344963224
7663343-0001_1457_I,0.0361342194371777
7663343-0001_1458_I,0.0332528120971717
7663343-0001_1459_I,0.0318475040045875
7663343-0001_1460_I,0.030614212494313
7663343-0001_1461_I,0.028432349128943
7663343-0001_1462_I,0.0235677527629284
7663343-0001_1463_I,0.0157199312348347
7663343-0001_1464_I,0.0069484184248938
7663343-0001_1465_I,-0.0006625933613891
7663343-0001_1466_I,-0.0056167153615028
7663343-0001_1467_I,-0.007146426320329
7663343-0001_1468_I,-0.0064647282330527
7663343-0001_1469_I,-0.0060209876521269
7663343-0001_1470_I,-0.0070267626108962
7663343-0001_1471_I,-0.0100609707333371
7663343-0001_1472_I,-0.0139317140819305
7663343-0001_1473_I,-0.017425768513516
7663343-0001_1474_I,-0.0193299098849332
7663343-0001_1475_I,-0.0195821959356991
7663343-0001_1476_I,-0.0186863472001061
7663343-0001_1477_I,-0.0188452570518653
7663343-0001_1478_I,-0.0205296200262549
7663343-0001_1479_I,-0.0239173396269335
7663343-0001_1480_I,-0.0277951917107408
7663343-0001_1481_I,-0.0305681538140734
7663343-0001_1482_I,-0.0318830106559941
7663343-0001_1483_I,-0.0333766225688125
7663343-0001_1484_I,-0.0363642906904004
7663343-0001_1485_I,-0.040242105749545
7663343-0001_1486_I,-0.0434866509800576
7663343-0001_1487_I,-0.0448847022387777
7663343-0001_1488_I,-0.0449411278245375
7663343-0001_1489_I,-0.0445859872611465
7663343-0001_1490_I,-0.0445859872611465
7663343-0001_1491_I,-0.0445859872611465
7663343-0001_1492_I,-0.0445859872611465
7663343-0001_1493_I,-0.0445545903472854
7663343-0001_1494_I,-0.0441253264094252
7663343-0001_1495_I,-0.0444577708546595
7663343-0001_1496_I,-0.0464819832067978
7663343-0001_1497_I,-0.0500160612986238
7663343-0001_1498_I,-0.0538467809869768
7663343-0001_1499_I,-0.0567609181286965
7663343-0001_1500_I,-0.0576865346929974
7663343-0001_1501_I,-0.0575540234256521
7663343-0001_1502_I,-0.0573248407643312
7663343-0001_1503_I,-0.0573248407643312
7663343-0001_1504_I,-0.0573248407643312
7663343-0001_1505_I,-0.0573248407643312
7663343-0001_1506_I,-0.0573248407643312
7663343-0001_1507_I,-0.0573248407643312
7663343-0001_1508_I,-0.0573248407643312
7663343-0001_1509_I,-0.057697901264407
7663343-0001_1510_I,-0.05761459577362
7663343-0001_1511_I,-0.0561448647681605
7663343-0001_1512_I,-0.0528644796642781
7663343-0001_1513_I,-0.0489866646051335
7663343-0001_1514_I,-0.0457246437338869
7663343-0001_1515_I,-0.0442916411936988
7663343-0001_1516_I,-0.0442221088773885
7663343-0001_1517_I,-0.0445859872611465
7663343-0001_1518_I,-0.0445859872611465
7663343-0001_1519_I,-0.0445859872611465
7663343-0001_1520_I,-0.0445859872611465
7663343-0001_1521_I,-0.0445859872611465
7663343-0001_1522_I,-0.0445859872611465
7663343-0001_1523_I,-0.0445859872611465
7663343-0001_1524_I,-0.0445859872611465
7663343-0001_1525_I,-0.0445859872611465
7663343-0001_1526_I,-0.0445859872611465
7663343-0001_1527_I,-0.0445859872611465
7663343-0001_1528_I,-0.0445859872611465
7663343-0001_1529_I,-0.0445859872611465
7663343-0001_1530_I,-0.0445859872611465
7663343-0001_1531_I,-0.0445859872611465
7663343-0001_1532_I,-0.0445859872611465
7663343-0001_1533_I,-0.0445859872611465
7663343-0001_1534_I,-0.0445859872611465
7663343-0001_1535_I,-0.0445859872611465
7663343-0001_1536_I,-0.0445859872611465
7663343-0001_1537_I,-0.0445859872611465
7663343-0001_1538_I,-0.0445859872611465
7663343-0001_1539_I,-0.0445859872611465
7663343-0001_1540_I,-0.0445859872611465
7663343-0001_1541_I,-0.0445859872611465
7663343-0001_1542_I,-0.0445859872611465
7663343-0001_1543_I,-0.0445859872611465
7663343-0001_1544_I,-0.0445859872611465
7663343-0001_1545_I,-0.0445859872611465
7663343-0001_1546_I,-0.0445859872611465
7663343-0001_1547_I,-0.0445859872611465
7663343-0001_1548_I,-0.0445859872611465
7663343-0001_1549_I,-0.0445859872611465
7663343-0001_1550_I,-0.0445859872611465
7663343-0001_1551_I,-0.0445859872611465
7663343-0001_1552_I,-0.0445859872611465
7663343-0001_1553_I,-0.0445859872611465
7663343-0001_1554_I,-0.0445859872611465
7663343-0001_1555_I,-0.0445859872611465
7663343-0001_1556_I,-0.0445859872611465
7663343-0001_1557_I,-0.0445859872611465
7663343-0001_1558_I,-0.0445859872611465
7663343-0001_1559_I,-0.0445859872611465
7663343-0001_1560_I,-0.0445859872611465
7663343-0001_1561_I,-0.0445859872611465
7663343-0001_1562_I,-0.0445859872611465
7663343-0001_1563_I,-0.0445859872611465
7663343-0001_1564_I,-0.0445859872611465
7663343-0001_1565_I,-0.0445859872611465
7663343-0001_1566_I,-0.0445859872611465
7663343-0001_1567_I,-0.0445859872611465
7663343-0001_1568_I,-0.0445859872611465
7663343-0001_1569_I,-0.0445859872611465
7663343-0001_1570_I,-0.0445859872611465
7663343-0001_1571_I,-0.0445859872611465
7663343-0001_1572_I,-0.0445859872611465
7663343-0001_1573_I,-0.0445859872611465
7663343-0001_1574_I,-0.0445859872611465
7663343-0001_1575_I,-0.0445859872611465
7663343-0001_1576_I,-0.0445859872611465
7663343-0001_1577_I,-0.0445859872611465
7663343-0001_1578_I,-0.0445859872611465
7663343-0001_1579_I,-0.0445859872611465
7663343-0001_1580_I,-0.0448069504473764
7663343-0001_1581_I,-0.0449517909273582
7663343-0001_1582_I,-0.0440507587390051
7663343-0001_1583_I,-0.0411737943585077
7663343-0001_1584_I,-0.0373555149567789
7663343-0001_1585_I,-0.0338091446769791
7663343-0001_1586_I,-0.0317479076622687
7663343-0001_1587_I,-0.0313906937177737
7663343-0001_1588_I,-0.0318074433196845
7663343-0001_1589_I,-0.0318471337579618
7663343-0001_1590_I,-0.0319782751127919
7663343-0001_1591_I,-0.0322578483398734
7663343-0001_1592_I,-0.0316263556950447
7663343-0001_1593_I,-0.0291534044325333
7663343-0001_1594_I,-0.0254697467039164
7663343-0001_1595_I,-0.0217886066523544
7663343-0001_1596_I,-0.0193232084210077
7663343-0001_1597_I,-0.0186966400563012
7663343-0001_1598_I,-0.0189788420344252
7663343-0001_1599_I,-0.019108280254777
7663343-0001_1600_I,-0.019108280254777
7663343-0001_1601_I,-0.019108280254777
7663343-0001_1602_I,-0.019108280254777
7663343-0001_1603_I,-0.019108280254777
7663343-0001_1604_I,-0.019108280254777
7663343-0001_1605_I,-0.019108280254777
7663343-0001_1606_I,-0.0195810851958219
7663343-0001_1607_I,-0.0193481630435813
7663343-0001_1608_I,-0.0174794542742455
7663343-0001_1609_I,-0.013999580288425
7663343-0001_1610_I,-0.0101217652292804
7663343-0001_1611_I,-0.0070592332399719
7663343-0001_1612_I,-0.0060252084636601
7663343-0001_1613_I,-0.0061052928088034
7663343-0001_1614_I,-0.0063694267515923
7663343-0001_1615_I,-0.0063694267515923
7663343-0001_1616_I,-0.0063694267515923
7663343-0001_1617_I,-0.0063694267515923
7663343-0001_1618_I,-0.0063694267515923
7663343-0001_1619_I,-0.0063694267515923
7663343-0001_1620_I,-0.0063694267515923
7663343-0001_1621_I,-0.0063694267515923
7663343-0001_1622_I,-0.0063694267515923
7663343-0001_1623_I,-0.0063694267515923
7663343-0001_1624_I,-0.0063694267515923
7663343-0001_1625_I,-0.0063694267515923
7663343-0001_1626_I,-0.0063694267515923
7663343-0001_1627_I,-0.0063694267515923
7663343-0001_1628_I,-0.0063367709992038
7663343-0001_1629_I,-0.0059094693684599
7663343-0001_1630_I,-0.0062455792552889
7663343-0001_1631_I,-0.0082751601835001
7663343-0001_1632_I,-0.0118109784344669
7663343-0001_1633_I,-0.0156398098650288
7663343-0001_1634_I,-0.0185484303320253
7663343-0001_1635_I,-0.0194705665780444
7663343-0001_1636_I,-0.0193362781268956
7663343-0001_1637_I,-0.019108280254777
7663343-0001_1638_I,-0.019108280254777
7663343-0001_1639_I,-0.019108280254777
7663343-0001_1640_I,-0.019108280254777
7663343-0001_1641_I,-0.019108280254777
7663343-0001_1642_I,-0.019108280254777
7663343-0001_1643_I,-0.019108280254777
7663343-0001_1644_I,-0.019108280254777
7663343-0001_1645_I,-0.019108280254777
7663343-0001_1646_I,-0.019108280254777
7663343-0001_1647_I,-0.019108280254777
7663343-0001_1648_I,-0.019108280254777
7663343-0001_1649_I,-0.019108280254777
7663343-0001_1650_I,-0.019108280254777
7663343-0001_1651_I,-0.019108280254777
7663343-0001_1652_I,-0.019108280254777
7663343-0001_1653_I,-0.019108280254777
7663343-0001_1654_I,-0.019108280254777
7663343-0001_1655_I,-0.019108280254777
7663343-0001_1656_I,-0.019108280254777
7663343-0001_1657_I,-0.019108280254777
7663343-0001_1658_I,-0.019108280254777
7663343-0001_1659_I,-0.0188686566386108
7663343-0001_1660_I,-0.0187518068035335
7663343-0001_1661_I,-0.0197087462323703
7663343-0001_1662_I,-0.022669867670894
7663343-0001_1663_I,-0.026516248791515
7663343-0001_1664_I,-0.0300346654510729
7663343-0001_1665_I,-0.0320118935064073
7663343-0001_1666_I,-0.0323130150871057
7663343-0001_1667_I,-0.0318680897169775
7663343-0001_1668_I,-0.0318471337579618
7663343-0001_1669_I,-0.0318471337579618
7663343-0001_1670_I,-0.0318471337579618
7663343-0001_1671_I,-0.0318471337579618
7663343-0001_1672_I,-0.0318471337579618
7663343-0001_1673_I,-0.0318471337579618
7663343-0001_1674_I,-0.0319520616516909
7663343-0001_1675_I,-0.032271029119749
7663343-0001_1676_I,-0.0317179917349105
7663343-0001_1677_I,-0.0293628899733659
7663343-0001_1678_I,-0.0257185154117379
7663343-0001_1679_I,-0.021998092193187
7663343-0001_1680_I,-0.0194148444608735
7663343-0001_1681_I,-0.0187098208361768
7663343-0001_1682_I,-0.0189526285733242
7663343-0001_1683_I,-0.019108280254777
7663343-0001_1684_I,-0.019108280254777
7663343-0001_1685_I,-0.019108280254777
7663343-0001_1686_I,-0.019108280254777
7663343-0001_1687_I,-0.019108280254777
7663343-0001_1688_I,-0.019108280254777
7663343-0001_1689_I,-0.019108280254777
7663343-0001_1690_I,-0.019108280254777
7663343-0001_1691_I,-0.019108280254777
7663343-0001_1692_I,-0.019108280254777
7663343-0001_1693_I,-0.019108280254777
7663343-0001_1694_I,-0.019108280254777
7663343-0001_1695_I,-0.019108280254777
7663343-0001_1696_I,-0.019108280254777
7663343-0001_1697_I,-0.019108280254777
7663343-0001_1698_I,-0.019108280254777
7663343-0001_1699_I,-0.019108280254777
7663343-0001_1700_I,-0.019108280254777
7663343-0001_1701_I,-0.019108280254777
7663343-0001_1702_I,-0.0190120901814149
7663343-0001_1703_I,-0.0186800159828063
7663343-0001_1704_I,-0.0192068399065438
7663343-0001_1705_I,-0.0215226214764369
7663343-0001_1706_I,-0.0251538893075144
7663343-0001_1707_I,-0.0288874192566158
7663343-0001_1708_I,-0.0315099871805808
7663343-0001_1709_I,-0.0322412242663785
7663343-0001_1710_I,-0.0320115232597816
7663343-0001_1711_I,-0.0318471337579618
7663343-0001_1712_I,-0.0318471337579618
7663343-0001_1713_I,-0.0318471337579618
7663343-0001_1714_I,-0.0318471337579618
7663343-0001_1715_I,-0.0318471337579618
7663343-0001_1716_I,-0.0318471337579618
7663343-0001_1717_I,-0.0318471337579618
7663343-0001_1718_I,-0.0318471337579618
7663343-0001_1719_I,-0.0318471337579618
7663343-0001_1720_I,-0.0318471337579618
7663343-0001_1721_I,-0.0318471337579618
7663343-0001_1722_I,-0.0318471337579618
7663343-0001_1723_I,-0.0318471337579618
7663343-0001_1724_I,-0.0318471337579618
7663343-0001_1725_I,-0.0318471337579618
7663343-0001_1726_I,-0.0318471337579618
7663343-0001_1727_I,-0.0318471337579618
7663343-0001_1728_I,-0.0318471337579618
7663343-0001_1729_I,-0.0318471337579618
7663343-0001_1730_I,-0.0318471337579618
7663343-0001_1731_I,-0.0318471337579618
7663343-0001_1732_I,-0.0318471337579618
7663343-0001_1733_I,-0.0318471337579618
7663343-0001_1734_I,-0.0318471337579618
7663343-0001_1735_I,-0.0318897121199196
7663343-0001_1736_I,-0.0323021298363095
7663343-0001_1737_I,-0.0319363261700978
7663343-0001_1738_I,-0.0298619083755118
7663343-0001_1739_I,-0.0263110951362033
7663343-0001_1740_I,-0.0224971105953329
7663343-0001_1741_I,-0.0196331788960608
7663343-0001_1742_I,-0.0187409215527373
7663343-0001_1743_I,-0.0188902790415529
7663343-0001_1744_I,-0.019108280254777
7663343-0001_1745_I,-0.019108280254777
7663343-0001_1746_I,-0.0195373960939869
7663343-0001_1747_I,-0.0193700075944988
7663343-0001_1748_I,-0.017676055232503
7663343-0001_1749_I,-0.0142835594503526
7663343-0001_1750_I,-0.0104057443912079
7663343-0001_1751_I,-0.0072558341982294
7663343-0001_1752_I,-0.0060470530145776
7663343-0001_1753_I,-0.0060616037069684
7663343-0001_1754_I,-0.0063694267515923
7663343-0001_1755_I,-0.0063694267515923
7663343-0001_1756_I,-0.0063694267515923
7663343-0001_1757_I,-0.0063694267515923
7663343-0001_1758_I,-0.0063694267515923
7663343-0001_1759_I,-0.0063694267515923
7663343-0001_1760_I,-0.0063694267515923
7663343-0001_1761_I,-0.0063694267515923
7663343-0001_1762_I,-0.0063694267515923
7663343-0001_1763_I,-0.0063694267515923
7663343-0001_1764_I,-0.0063694267515923
7663343-0001_1765_I,-0.0063694267515923
7663343-0001_1766_I,-0.0063694267515923
7663343-0001_1767_I,-0.0063694267515923
7663343-0001_1768_I,-0.0063694267515923
7663343-0001_1769_I,-0.0063694267515923
7663343-0001_1770_I,-0.0063694267515923
7663343-0001_1771_I,-0.0061647544168941
7663343-0001_1772_I,-0.0059954776596148
7663343-0001_1773_I,-0.0068475632440476
7663343-0001_1774_I,-0.0092310258971223
7663343-0001_1775_I,-0.013179261864479
7663343-0001_1776_I,-0.0184091065267667
7663343-0001_1777_I,-0.0239186354901236
7663343-0001_1778_I,-0.0282024259743706
7663343-0001_1779_I,-0.0306018092323514
7663343-0001_1780_I,-0.0318766053893691
7663343-0001_1781_I,-0.0332397423912837
7663343-0001_1782_I,-0.0359045554552434
7663343-0001_1783_I,-0.0403652868019222
7663343-0001_1784_I,-0.0460222109469783
7663343-0001_1785_I,-0.0511046604275667
7663343-0001_1786_I,-0.0548059789202305
7663343-0001_1787_I,-0.056611560639881
7663343-0001_1788_I,-0.0577350740256294
7663343-0001_1789_I,-0.0596752033690666
7663343-0001_1790_I,-0.0631214219366091
7663343-0001_1791_I,-0.066894272077362
7663343-0001_1792_I,-0.0696348005762815
7663343-0001_1793_I,-0.0704446780453822
7663343-0001_1794_I,-0.0702542972304368
7663343-0001_1795_I,-0.0700636942675159
7663343-0001_1796_I,-0.0700636942675159
7663343-0001_1797_I,-0.0700636942675159
7663343-0001_1798_I,-0.0700636942675159
7663343-0001_1799_I,-0.0700636942675159
7663343-0001_1800_I,-0.0700636942675159
7663343-0001_1801_I,-0.0700636942675159
7663343-0001_1802_I,-0.0696520540690401
7663343-0001_1803_I,-0.0697932291074272
7663343-0001_1804_I,-0.071417278906487
7663343-0001_1805_I,-0.0747748234071694
7663343-0001_1806_I,-0.0786526384663141
7663343-0001_1807_I,-0.0818374999407606
7663343-0001_1808_I,-0.0831161836873484
7663343-0001_1809_I,-0.0831278464560586
7663343-0001_1810_I,-0.0828025477707007
7663343-0001_1811_I,-0.0828025477707007
7663343-0001_1812_I,-0.0828025477707007
7663343-0001_1813_I,-0.0828025477707007
7663343-0001_1814_I,-0.0828025477707007
7663343-0001_1815_I,-0.0828025477707007
7663343-0001_1816_I,-0.0828025477707007
7663343-0001_1817_I,-0.0828025477707007
7663343-0001_1818_I,-0.0828025477707007
7663343-0001_1819_I,-0.0828025477707007
7663343-0001_1820_I,-0.0828025477707007
7663343-0001_1821_I,-0.0828025477707007
7663343-0001_1822_I,-0.0828025477707007
7663343-0001_1823_I,-0.0828025477707007
7663343-0001_1824_I,-0.0828025477707007
7663343-0001_1825_I,-0.0828025477707007
7663343-0001_1826_I,-0.0828025477707007
7663343-0001_1827_I,-0.0828025477707007
7663343-0001_1828_I,-0.0828025477707007
7663343-0001_1829_I,-0.0828025477707007
7663343-0001_1830_I,-0.0828025477707007
7663343-0001_1831_I,-0.0828025477707007
7663343-0001_1832_I,-0.0828025477707007
7663343-0001_1833_I,-0.0828025477707007
7663343-0001_1834_I,-0.0828025477707007
7663343-0001_1835_I,-0.0828025477707007
7663343-0001_1836_I,-0.0828025477707007
7663343-0001_1837_I,-0.0828025477707007
7663343-0001_1838_I,-0.0828025477707007
7663343-0001_1839_I,-0.0828025477707007
7663343-0001_1840_I,-0.0828025477707007
7663343-0001_1841_I,-0.0828025477707007
7663343-0001_1842_I,-0.0828025477707007
7663343-0001_1843_I,-0.0828025477707007
7663343-0001_1844_I,-0.0828025477707007
7663343-0001_1845_I,-0.0828025477707007
7663343-0001_1846_I,-0.0828025477707007
7663343-0001_1847_I,-0.0828025477707007
7663343-0001_1848_I,-0.0828025477707007
7663343-0001_1849_I,-0.0828025477707007
7663343-0001_1850_I,-0.0828025477707007
7663343-0001_1851_I,-0.0828025477707007
7663343-0001_1852_I,-0.0828025477707007
7663343-0001_1853_I,-0.0828025477707007
7663343-0001_1854_I,-0.0828025477707007
7663343-0001_1855_I,-0.0828025477707007
7663343-0001_1856_I,-0.0828025477707007
7663343-0001_1857_I,-0.0828025477707007
7663343-0001_1858_I,-0.0828025477707007
7663343-0001_1859_I,-0.0828025477707007
7663343-0001_1860_I,-0.0828025477707007
7663343-0001_1861_I,-0.0828025477707007
7663343-0001_1862_I,-0.0828025477707007
7663343-0001_1863_I,-0.0828025477707007
7663343-0001_1864_I,-0.0828025477707007
7663343-0001_1865_I,-0.0828025477707007
7663343-0001_1866_I,-0.0828025477707007
7663343-0001_1867_I,-0.0828025477707007
7663343-0001_1868_I,-0.0828025477707007
7663343-0001_1869_I,-0.0828025477707007
7663343-0001_1870_I,-0.0828025477707007
7663343-0001_1871_I,-0.0828025477707007
7663343-0001_1872_I,-0.0828025477707007
7663343-0001_1873_I,-0.0828025477707007
7663343-0001_1874_I,-0.0828025477707007
7663343-0001_1875_I,-0.0828025477707007
7663343-0001_1876_I,-0.0828025477707007
7663343-0001_1877_I,-0.0828025477707007
7663343-0001_1878_I,-0.0828025477707007
7663343-0001_1879_I,-0.0828025477707007
7663343-0001_1880_I,-0.0828025477707007
7663343-0001_1881_I,-0.0828025477707007
7663343-0001_1882_I,-0.0828025477707007
7663343-0001_1883_I,-0.0828025477707007
7663343-0001_1884_I,-0.0828025477707007
7663343-0001_1885_I,-0.0828025477707007
7663343-0001_1886_I,-0.0828025477707007
7663343-0001_1887_I,-0.0828025477707007
7663343-0001_1888_I,-0.0828025477707007
7663343-0001_1889_I,-0.0828025477707007
7663343-0001_1890_I,-0.0828025477707007
7663343-0001_1891_I,-0.0828025477707007
7663343-0001_1892_I,-0.0828025477707007
7663343-0001_1893_I,-0.0828025477707007
7663343-0001_1894_I,-0.0828025477707007
7663343-0001_1895_I,-0.0828025477707007
7663343-0001_1896_I,-0.0828025477707007
7663343-0001_1897_I,-0.0828025477707007
7663343-0001_1898_I,-0.0828375731014938
7663343-0001_1899_I,-0.0832613944139559
7663343-0001_1900_I,-0.0829180647179254
7663343-0001_1901_I,-0.0808775244895928
7663343-0001_1902_I,-0.0773380037723689
7663343-0001_1903_I,-0.0735127267094139
7663343-0001_1904_I,-0.0706149174438884
7663343-0001_1905_I,-0.0697001861303837
7663343-0001_1906_I,-0.0698381400231271
7663343-0001_1907_I,-0.0700636942675159
7663343-0001_1908_I,-0.0700636942675159
7663343-0001_1909_I,-0.0700636942675159
7663343-0001_1910_I,-0.0700636942675159
7663343-0001_1911_I,-0.0700636942675159
7663343-0001_1912_I,-0.0700636942675159
7663343-0001_1913_I,-0.0700636942675159
7663343-0001_1914_I,-0.0700636942675159
7663343-0001_1915_I,-0.0700636942675159
7663343-0001_1916_I,-0.0700636942675159
7663343-0001_1917_I,-0.0700636942675159
7663343-0001_1918_I,-0.0700636942675159
7663343-0001_1919_I,-0.0700636942675159
7663343-0001_1920_I,-0.0700636942675159
7663343-0001_1921_I,-0.0700636942675159
7663343-0001_1922_I,-0.0700636942675159
7663343-0001_1923_I,-0.0700636942675159
7663343-0001_1924_I,-0.0700636942675159
7663343-0001_1925_I,-0.0700636942675159
7663343-0001_1926_I,-0.0700636942675159
7663343-0001_1927_I,-0.0700636942675159
7663343-0001_1928_I,-0.0700636942675159
7663343-0001_1929_I,-0.06982162702362
7663343-0001_1930_I,-0.0697084426301373
7663343-0001_1931_I,-0.0706727869914885
7663343-0001_1932_I,-0.0736447196314832
7663343-0001_1933_I,-0.0774946551197111
7663343-0001_1934_I,-0.0810093693130119
7663343-0001_1935_I,-0.0829756380682249
7663343-0001_1936_I,-0.0832695398397218
7663343-0001_1937_I,-0.0828211341513118
7663343-0001_1938_I,-0.0828025477707007
7663343-0001_1939_I,-0.0828025477707007
7663343-0001_1940_I,-0.0828025477707007
7663343-0001_1941_I,-0.0828025477707007
7663343-0001_1942_I,-0.0828025477707007
7663343-0001_1943_I,-0.0828025477707007
7663343-0001_1944_I,-0.0828025477707007
7663343-0001_1945_I,-0.0828025477707007
7663343-0001_1946_I,-0.0828025477707007
7663343-0001_1947_I,-0.0828025477707007
7663343-0001_1948_I,-0.0828025477707007
7663343-0001_1949_I,-0.0828025477707007
7663343-0001_1950_I,-0.0828025477707007
7663343-0001_1951_I,-0.0828025477707007
7663343-0001_1952_I,-0.0828025477707007
7663343-0001_1953_I,-0.0828025477707007
7663343-0001_1954_I,-0.0828025477707007
7663343-0001_1955_I,-0.0828025477707007
7663343-0001_1956_I,-0.0828025477707007
7663343-0001_1957_I,-0.0828025477707007
7663343-0001_1958_I,-0.0828025477707007
7663343-0001_1959_I,-0.0828025477707007
7663343-0001_1960_I,-0.0828025477707007
7663343-0001_1961_I,-0.0828025477707007
7663343-0001_1962_I,-0.0828025477707007
7663343-0001_1963_I,-0.0828025477707007
7663343-0001_1964_I,-0.0828025477707007
7663343-0001_1965_I,-0.0828025477707007
7663343-0001_1966_I,-0.0828025477707007
7663343-0001_1967_I,-0.0829460553628299
7663343-0001_1968_I,-0.0832071532832879
7663343-0001_1969_I,-0.0825383768032492
7663343-0001_1970_I,-0.0800096663989043
7663343-0001_1971_I,-0.0763074222896763
7663343-0001_1972_I,-0.0725462349176335
7663343-0001_1973_I,-0.0698082611204315
7663343-0001_1974_I,-0.0697529462745489
7663343-0001_1975_I,-0.0723802903799856
7663343-0001_1976_I,-0.076132258611048
7663343-0001_1977_I,-0.0798621601432174
7663343-0001_1978_I,-0.0824738428163862
7663343-0001_1979_I,-0.0831979341423074
7663343-0001_1980_I,-0.0829644936447907
7663343-0001_1981_I,-0.0828025477707007
7663343-0001_1982_I,-0.0828025477707007
7663343-0001_1983_I,-0.0828025477707007
7663343-0001_1984_I,-0.0828025477707007
7663343-0001_1985_I,-0.0828025477707007
7663343-0001_1986_I,-0.0828025477707007
7663343-0001_1987_I,-0.0828025477707007
7663343-0001_1988_I,-0.0828025477707007
7663343-0001_1989_I,-0.0828025477707007
7663343-0001_1990_I,-0.0828025477707007
7663343-0001_1991_I,-0.0828025477707007
7663343-0001_1992_I,-0.0828025477707007
7663343-0001_1993_I,-0.0828025477707007
7663343-0001_1994_I,-0.0828025477707007
7663343-0001_1995_I,-0.0828025477707007
7663343-0001_1996_I,-0.0828025477707007
7663343-0001_1997_I,-0.0828025477707007
7663343-0001_1998_I,-0.0831530232266076
7663343-0001_1999_I,-0.083103669351399
7663343-0001_2000_I,-0.0817240933993024
7663343-0001_2001_I,-0.0784887673097703
7663343-0001_2002_I,-0.074610915225963
7663343-0001_2003_I,-0.0716093628559107
7663343-0001_2004_I,-0.0701040141250569
7663343-0001_2005_I,-0.0688008941011715
7663343-0001_2006_I,-0.0660418162463035
7663343-0001_2007_I,-0.0621640011871588
7663343-0001_2008_I,-0.0587670624454997
7663343-0001_2009_I,-0.0570642241644867
7663343-0001_2010_I,-0.0568936515440173
7663343-0001_2011_I,-0.0578010519743327
7663343-0001_2012_I,-0.0575624650487185
7663343-0001_2013_I,-0.0556791685623294
7663343-0001_2014_I,-0.05219211179197
7663343-0001_2015_I,-0.0483145188808007
7663343-0001_2016_I,-0.0452596139719821
7663343-0001_2017_I,-0.0442399547647483
7663343-0001_2018_I,-0.0444964616270473
7663343-0001_2019_I,-0.0449767825745943
7663343-0001_2020_I,-0.044225700269658
7663343-0001_2021_I,-0.0415736607142857
7663343-0001_2022_I,-0.0378303562542652
7663343-0001_2023_I,-0.0343350429841523
7663343-0001_2024_I,-0.0323361925258758
7663343-0001_2025_I,-0.0312126791401274
7663343-0001_2026_I,-0.029104383779288
7663343-0001_2027_I,-0.0255180268639104
7663343-0001_2028_I,-0.0218292597318585
7663343-0001_2029_I,-0.0193409802590423
7663343-0001_2030_I,-0.0186992688073438
7663343-0001_2031_I,-0.0192705963754928
7663343-0001_2032_I,-0.0194362076911776
7663343-0001_2033_I,-0.0182710785846982
7663343-0001_2034_I,-0.0151429759179746
7663343-0001_2035_I,-0.0112651238341674
7663343-0001_2036_I,-0.0078507464764369
7663343-0001_2037_I,-0.0061130679879435
7663343-0001_2038_I,-0.0059294256615862
7663343-0001_2039_I,-0.0063694267515923
7663343-0001_2040_I,-0.0063694267515923
7663343-0001_2041_I,-0.0063694267515923
7663343-0001_2042_I,-0.0063694267515923
7663343-0001_2043_I,-0.0063694267515923
7663343-0001_2044_I,-0.0063694267515923
7663343-0001_2045_I,-0.0063694267515923
7663343-0001_2046_I,-0.0062071846802017
7663343-0001_2047_I,-0.005974262527961
7663343-0001_2048_I,-0.0066991313717963
7663343-0001_2049_I,-0.0093118507355171
7663343-0001_2050_I,-0.0130420484649871
7663343-0001_2051_I,-0.0165592062860176
7663343-0001_2052_I,-0.018584270205395
7663343-0001_2053_I,-0.0197077835911434
7663343-0001_2054_I,-0.0217898654908818
7663343-0001_2055_I,-0.025354377855342
7663343-0001_2056_I,-0.0290562517179443
7663343-0001_2057_I,-0.031583851382412
7663343-0001_2058_I,-0.0322517762952115
7663343-0001_2059_I,-0.03170229327798
7663343-0001_2060_I,-0.0315148374113778
7663343-0001_2061_I,-0.0326450152363891
7663343-0001_2062_I,-0.0357556422623787
7663343-0001_2063_I,-0.0396334943461859
7663343-0001_2064_I,-0.0430653473446504
7663343-0001_2065_I,-0.0448379771146118
7663343-0001_2066_I,-0.0450347261715196
7663343-0001_2067_I,-0.0445859872611465
7663343-0001_2068_I,-0.0445859872611465
7663343-0001_2069_I,-0.0443876091190855
7663343-0001_2070_I,-0.0442088910728503
7663343-0001_2071_I,-0.0450421681286965
7663343-0001_2072_I,-0.0482315836366394
7663343-0001_2073_I,-0.051871144992133
7663343-0001_2074_I,-0.0536640642771838
7663343-0001_2075_I,-0.0522184733517213
7663343-0001_2076_I,-0.0494642827523127
7663343-0001_2077_I,-0.0484748356697376
7663343-0001_2078_I,-0.0508607419505422
7663343-0001_2079_I,-0.0545003033060358
7663343-0001_2080_I,-0.0571879605868024
7663343-0001_2081_I,-0.0577475513369161
7663343-0001_2082_I,-0.0574319901378147
7663343-0001_2083_I,-0.0573248407643312
7663343-0001_2084_I,-0.0573248407643312
7663343-0001_2085_I,-0.0573248407643312
7663343-0001_2086_I,-0.0573248407643312
7663343-0001_2087_I,-0.0570454526605626
7663343-0001_2088_I,-0.0569881755075637
7663343-0001_2089_I,-0.0580834020511071
7663343-0001_2090_I,-0.0611765534363626
7663343-0001_2091_I,-0.0650544055201699
7663343-0001_2092_I,-0.0685037341593684
7663343-0001_2093_I,-0.0703113152107977
7663343-0001_2094_I,-0.070521170998256
7663343-0001_2095_I,-0.0700636942675159
7663343-0001_2096_I,-0.0700636942675159
7663343-0001_2097_I,-0.069874053945822
7663343-0001_2098_I,-0.0696822291690363
7663343-0001_2099_I,-0.0704892187144563
7663343-0001_2100_I,-0.0732254153278549
7663343-0001_2101_I,-0.0769968215067676
7663343-0001_2102_I,-0.0805902131080338
7663343-0001_2103_I,-0.0827923659884934
7663343-0001_2104_I,-0.0832434374526085
7663343-0001_2105_I,-0.0828734870241887
7663343-0001_2106_I,-0.0828025477707007
7663343-0001_2107_I,-0.0828025477707007
7663343-0001_2108_I,-0.0828025477707007
7663343-0001_2109_I,-0.0828025477707007
7663343-0001_2110_I,-0.0824870235962618
7663343-0001_2111_I,-0.0824839505492683
7663343-0001_2112_I,-0.0837237213754929
7663343-0001_2113_I,-0.0868891449020891
7663343-0001_2114_I,-0.0907669969858963
7663343-0001_2115_I,-0.0938734032003526
7663343-0001_2116_I,-0.0954660560855513
7663343-0001_2117_I,-0.0966819830290795
7663343-0001_2118_I,-0.0993363181135313
7663343-0001_2119_I,-0.1032141701973385
7663343-0001_2120_I,-0.1062294216925425
7663343-0001_2121_I,-0.1077967126838793
7663343-0001_2122_I,-0.1098504707167501
7663343-0001_2123_I,-0.114740391951964
7663343-0001_2124_I,-0.122577550377237
7663343-0001_2125_I,-0.1313993426789506
7663343-0001_2126_I,-0.1388956520605855
7663343-0001_2127_I,-0.1434587936239385
7663343-0001_2128_I,-0.1457356622734684
7663343-0001_2129_I,-0.1468253721422885
7663343-0001_2130_I,-0.1469283007042388
7663343-0001_2131_I,-0.1469050862408061
7663343-0001_2132_I,-0.1462588577802738
7663343-0001_2133_I,-0.1448193018748105
7663343-0001_2134_I,-0.1409744757900176
7663343-0001_2135_I,-0.1336028284472628
7663343-0001_2136_I,-0.1231448792818283
7663343-0001_2137_I,-0.1083419378649151
7663343-0001_2138_I,-0.0894013423069268
7663343-0001_2139_I,-0.0669649891828746
7663343-0001_2140_I,-0.0397047668216371
7663343-0001_2141_I,-0.0072248815803192
7663343-0001_2142_I,0.0251601464754891
7663343-0001_2143_I,0.0538171242322566
7663343-0001_2144_I,0.0783280062248825
7663343-0001_2145_I,0.1039677701793297
7663343-0001_2146_I,0.1384481349640773
7663343-0001_2147_I,0.1775997533268882
7663343-0001_2148_I,0.2122694992606917
7663343-0001_2149_I,0.2375703764786171
7663343-0001_2150_I,0.2584360323423759
7663343-0001_2151_I,0.2831567701224601
7663343-0001_2152_I,0.3179140793832464
7663343-0001_2153_I,0.357686194066102
7663343-0001_2154_I,0.3969023093911135
7663343-0001_2155_I,0.4285074129298419
7663343-0001_2156_I,0.4517567165699883
7663343-0001_2157_I,0.4674689096503454
7663343-0001_2158_I,0.4776248116185173
7663343-0001_2159_I,0.4866775637653553
7663343-0001_2160_I,0.495440190656279
7663343-0001_2161_I,0.500874522529952
7663343-0001_2162_I,0.5034834283534279
7663343-0001_2163_I,0.5050098811419477
7663343-0001_2164_I,0.5078848461906662
7663343-0001_2165_I,0.5112773789974793
7663343-0001_2166_I,0.5129423040240185
7663343-0001_2167_I,0.5109432684424291
7663343-0001_2168_I,0.5050760442139639
7663343-0001_2169_I,0.4969966704461447
7663343-0001_2170_I,0.4874162798329925
7663343-0001_2171_I,0.4756595055045311
7663343-0001_2172_I,0.4621290647155562
7663343-0001_2173_I,0.4463092409411022
7663343-0001_2174_I,0.4278442271738516
7663343-0001_2175_I,0.408974163598063
7663343-0001_2176_I,0.3910970274231312
7663343-0001_2177_I,0.3746684071220052
7663343-0001_2178_I,0.3568158923476838
7663343-0001_2179_I,0.3346645921007737
7663343-0001_2180_I,0.3079507426851117
7663343-0001_2181_I,0.2793935463939758
7663343-0001_2182_I,0.2519633438068701
7663343-0001_2183_I,0.2258334473692942
7663343-0001_2184_I,0.198227747881597
7663343-0001_2185_I,0.169633712051202
7663343-0001_2186_I,0.1424894879578027
7663343-0001_2187_I,0.1184552614711291
7663343-0001_2188_I,0.0967967224583903
7663343-0001_2189_I,0.0743689220313922
7663343-0001_2190_I,0.0509434550467281
7663343-0001_2191_I,0.0296464618640051
7663343-0001_2192_I,0.0124274760909539
7663343-0001_2193_I,0.0008904431348574
7663343-0001_2194_I,-0.0063979357417728
7663343-0001_2195_I,-0.0124189974432249
7663343-0001_2196_I,-0.0175767921121474
7663343-0001_2197_I,-0.0226084807803495
7663343-0001_2198_I,-0.0272853621071239
7663343-0001_2199_I,-0.0305189110128526
7663343-0001_2200_I,-0.032099641956703
7663343-0001_2201_I,-0.0322946878791325
7663343-0001_2202_I,-0.0313869912515165
7663343-0001_2203_I,-0.0316008457025326
7663343-0001_2204_I,-0.0334190898567827
7663343-0001_2205_I,-0.0368737500473916
7663343-0001_2206_I,-0.0407516021311988
7663343-0001_2207_I,-0.043839421965044
7663343-0001_2208_I,-0.0449239854057666
7663343-0001_2209_I,-0.0447080205489839
7663343-0001_2210_I,-0.0441870465219328
7663343-0001_2211_I,-0.0448891822229489
7663343-0001_2212_I,-0.0474680980697414
7663343-0001_2213_I,-0.0511870773264521
7663343-0001_2214_I,-0.0548328958499204
7663343-0001_2215_I,-0.0571923294969859
7663343-0001_2216_I,-0.057748254805505
7663343-0001_2217_I,-0.0574307312992872
7663343-0001_2218_I,-0.0573248407643312
7663343-0001_2219_I,-0.0573248407643312
7663343-0001_2220_I,-0.0573248407643312
7663343-0001_2221_I,-0.0573248407643312
7663343-0001_2222_I,-0.0573248407643312
7663343-0001_2223_I,-0.0573248407643312
7663343-0001_2224_I,-0.0573248407643312
7663343-0001_2225_I,-0.0573248407643312
7663343-0001_2226_I,-0.0573248407643312
7663343-0001_2227_I,-0.0573248407643312
7663343-0001_2228_I,-0.0573248407643312
7663343-0001_2229_I,-0.0573248407643312
7663343-0001_2230_I,-0.0573248407643312
7663343-0001_2231_I,-0.0573248407643312
7663343-0001_2232_I,-0.0573248407643312
7663343-0001_2233_I,-0.0573248407643312
7663343-0001_2234_I,-0.0573248407643312
7663343-0001_2235_I,-0.0573248407643312
7663343-0001_2236_I,-0.0573248407643312
7663343-0001_2237_I,-0.0571788895444723
7663343-0001_2238_I,-0.056921531114934
7663343-0001_2239_I,-0.0575974533548491
7663343-0001_2240_I,-0.0601370490099902
7663343-0001_2241_I,-0.0638429215361503
7663343-0001_2242_I,-0.0675018467901691
7663343-0001_2243_I,-0.0699006006288861
7663343-0001_2244_I,-0.0704827393985062
7663343-0001_2245_I,-0.070178322622839
7663343-0001_2246_I,-0.0700636942675159
7663343-0001_2247_I,-0.0700636942675159
7663343-0001_2248_I,-0.0700636942675159
7663343-0001_2249_I,-0.0700636942675159
7663343-0001_2250_I,-0.0700636942675159
7663343-0001_2251_I,-0.0700636942675159
7663343-0001_2252_I,-0.0700636942675159
7663343-0001_2253_I,-0.0700636942675159
7663343-0001_2254_I,-0.0700636942675159
7663343-0001_2255_I,-0.0698367330859494
7663343-0001_2256_I,-0.0697008155496474
7663343-0001_2257_I,-0.0706199527979982
7663343-0001_2258_I,-0.0735242043548112
7663343-0001_2259_I,-0.0773516288481954
7663343-0001_2260_I,-0.0808890021349902
7663343-0001_2261_I,-0.0829231000720352
7663343-0001_2262_I,-0.0832620238332196
7663343-0001_2263_I,-0.0828361661643161
7663343-0001_2264_I,-0.0828025477707007
7663343-0001_2265_I,-0.0828025477707007
7663343-0001_2266_I,-0.0828025477707007
7663343-0001_2267_I,-0.0828025477707007
7663343-0001_2268_I,-0.0828025477707007
7663343-0001_2269_I,-0.0828025477707007
7663343-0001_2270_I,-0.0828025477707007
7663343-0001_2271_I,-0.0828025477707007
7663343-0001_2272_I,-0.0828025477707007
7663343-0001_2273_I,-0.0828025477707007
7663343-0001_2274_I,-0.0828025477707007
7663343-0001_2275_I,-0.082850013388118
7663343-0001_2276_I,-0.0832551002213187
7663343-0001_2277_I,-0.0828745607394033
7663343-0001_2278_I,-0.0807783354185624
7663343-0001_2279_I,-0.0772203023700524
7663343-0001_2280_I,-0.0734136857370337
7663343-0001_2281_I,-0.0705717096626668
7663343-0001_2282_I,-0.0696940030117342
7663343-0001_2283_I,-0.0698505062604262
7663343-0001_2284_I,-0.0700636942675159
7663343-0001_2285_I,-0.0700636942675159
7663343-0001_2286_I,-0.0700636942675159
7663343-0001_2287_I,-0.0700636942675159
7663343-0001_2288_I,-0.0700636942675159
7663343-0001_2289_I,-0.0700636942675159
7663343-0001_2290_I,-0.0700636942675159
7663343-0001_2291_I,-0.0700636942675159
7663343-0001_2292_I,-0.0700636942675159
7663343-0001_2293_I,-0.0700636942675159
7663343-0001_2294_I,-0.0700636942675159
7663343-0001_2295_I,-0.0700636942675159
7663343-0001_2296_I,-0.0700636942675159
7663343-0001_2297_I,-0.0700636942675159
7663343-0001_2298_I,-0.0700636942675159
7663343-0001_2299_I,-0.0700636942675159
7663343-0001_2300_I,-0.0700636942675159
7663343-0001_2301_I,-0.0700636942675159
7663343-0001_2302_I,-0.0700636942675159
7663343-0001_2303_I,-0.0701024220645663
7663343-0001_2304_I,-0.0705206156283174
7663343-0001_2305_I,-0.0701662896075031
7663343-0001_2306_I,-0.0681093844783136
7663343-0001_2307_I,-0.0645644581603541
7663343-0001_2308_I,-0.060744734796785
7663343-0001_2309_I,-0.0578634385307666
7663343-0001_2310_I,-0.0569595184187329
7663343-0001_2311_I,-0.0571029149368744
7663343-0001_2312_I,-0.0573248407643312
7663343-0001_2313_I,-0.0573248407643312
7663343-0001_2314_I,-0.0573248407643312
7663343-0001_2315_I,-0.0573248407643312
7663343-0001_2316_I,-0.0573248407643312
7663343-0001_2317_I,-0.0573248407643312
7663343-0001_2318_I,-0.0573248407643312
7663343-0001_2319_I,-0.0573248407643312
7663343-0001_2320_I,-0.0573248407643312
7663343-0001_2321_I,-0.0573248407643312
7663343-0001_2322_I,-0.0573248407643312
7663343-0001_2323_I,-0.0573248407643312
7663343-0001_2324_I,-0.0576602842072339
7663343-0001_2325_I,-0.0576334783515317
7663343-0001_2326_I,-0.0563140304514521
7663343-0001_2327_I,-0.0531087683879284
7663343-0001_2328_I,-0.0492309163041212
7663343-0001_2329_I,-0.0458936983431908
7663343-0001_2330_I,-0.0443103386482977
7663343-0001_2331_I,-0.0442145558462238
7663343-0001_2332_I,-0.0450472775321315
7663343-0001_2333_I,-0.0447191649724181
7663343-0001_2334_I,-0.0427015800348802
7663343-0001_2335_I,-0.0391697604474712
7663343-0001_2336_I,-0.0353369303533515
7663343-0001_2337_I,-0.0328777152406544
7663343-0001_2338_I,-0.0317317649093873
7663343-0001_2339_I,-0.0300389603119313
7663343-0001_2340_I,-0.026812557166079
7663343-0001_2341_I,-0.0229347421069343
7663343-0001_2342_I,-0.0198494029254815
7663343-0001_2343_I,-0.0187697637648809
7663343-0001_2344_I,-0.018832742715916
7663343-0001_2345_I,-0.019108280254777
7663343-0001_2346_I,-0.019108280254777
7663343-0001_2347_I,-0.019108280254777
7663343-0001_2348_I,-0.019108280254777
7663343-0001_2349_I,-0.019219280193168
7663343-0001_2350_I,-0.0195290655449082
7663343-0001_2351_I,-0.0189579971493971
7663343-0001_2352_I,-0.0169023878833978
7663343-0001_2353_I,-0.013235243154288
7663343-0001_2354_I,-0.0083716464541628
7663343-0001_2355_I,-0.0033820178026425
7663343-0001_2356_I,0.0020557203399871
7663343-0001_2357_I,0.0095191888459205
7663343-0001_2358_I,0.0181601897202949
7663343-0001_2359_I,0.0258563952551562
7663343-0001_2360_I,0.030962170273165
7663343-0001_2361_I,0.032605398847437
7663343-0001_2362_I,0.0322360408136184
7663343-0001_2363_I,0.0318471337579618
7663343-0001_2364_I,0.0318471337579618
7663343-0001_2365_I,0.0313944702333561
7663343-0001_2366_I,0.031597180260938
7663343-0001_2367_I,0.033385323364517
7663343-0001_2368_I,0.036824914517459
7663343-0001_2369_I,0.0407027295766037
7663343-0001_2370_I,0.0433977547652222
7663343-0001_2371_I,0.0446477443983166
7663343-0001_2372_I,0.0460593837082006
7663343-0001_2373_I,0.0488692964247801
7663343-0001_2374_I,0.0534267732147596
7663343-0001_2375_I,0.0591643740995602
7663343-0001_2376_I,0.0641661468404042
7663343-0001_2377_I,0.0678406965020284
7663343-0001_2378_I,0.0699048584650819
7663343-0001_2379_I,0.0704832577437823
7663343-0001_2380_I,0.069859170031468
7663343-0001_2381_I,0.0697463188599485
7663343-0001_2382_I,0.0709958641970921
7663343-0001_2383_I,0.0741661749791477
7663343-0001_2384_I,0.078044027062955
7663343-0001_2385_I,0.0811431023942221
7663343-0001_2386_I,0.0827297202594215
7663343-0001_2387_I,0.0839515711489612
7663343-0001_2388_I,0.0866131260426145
7663343-0001_2389_I,0.0904909411017592
7663343-0001_2390_I,0.0937246751308008
7663343-0001_2391_I,0.0954235887975812
7663343-0001_2392_I,0.0965657996379285
7663343-0001_2393_I,0.0985678342171861
7663343-0001_2394_I,0.1025867132407303
7663343-0001_2395_I,0.1076920809874508
7663343-0001_2396_I,0.1129414746715765
7663343-0001_2397_I,0.1179428031164696
7663343-0001_2398_I,0.1233429612265886
7663343-0001_2399_I,0.1282219972110063
7663343-0001_2400_I,0.1316496293979376
7663343-0001_2401_I,0.1333183679647218
7663343-0001_2402_I,0.1344418813504702
7663343-0001_2403_I,0.1365872754232068
7663343-0001_2404_I,0.140204547931832
7663343-0001_2405_I,0.1437812414102784
7663343-0001_2406_I,0.1458777999530824
7663343-0001_2407_I,0.1470012392895057
7663343-0001_2408_I,0.1490120116891304
7663343-0001_2409_I,0.1525170994701624
7663343-0001_2410_I,0.1562546280828216
7663343-0001_2411_I,0.1588891919974599
7663343-0001_2412_I,0.1596284264103732
7663343-0001_2413_I,0.159402724067334
7663343-0001_2414_I,0.159235668789809
7663343-0001_2415_I,0.159235668789809
7663343-0001_2416_I,0.159235668789809
7663343-0001_2417_I,0.159235668789809
7663343-0001_2418_I,0.159455150989536
7663343-0001_2419_I,0.1596022129492722
7663343-0001_2420_I,0.1587056977697529
7663343-0001_2421_I,0.1558352127052056
7663343-0001_2422_I,0.1520190437092434
7663343-0001_2423_I,0.1484704149250267
7663343-0001_2424_I,0.1464025504957159
7663343-0001_2425_I,0.1460410046657
7663343-0001_2426_I,0.1468460319040037
7663343-0001_2427_I,0.1467779435495338
7663343-0001_2428_I,0.14523919857304
7663343-0001_2429_I,0.1419243064836405
7663343-0001_2430_I,0.1380464914244958
7663343-0001_2431_I,0.1351644176405635
7663343-0001_2432_I,0.1337585541780407
7663343-0001_2433_I,0.1323556526885237
7663343-0001_2434_I,0.1294771332721983
7663343-0001_2435_I,0.1255993182130536
7663343-0001_2436_I,0.1228830408681188
7663343-0001_2437_I,0.1213907988678155
7663343-0001_2438_I,0.1189205504056719
7663343-0001_2439_I,0.1130413301865333
7663343-0001_2440_I,0.1052856260189188
7663343-0001_2441_I,0.0987270032415833
7663343-0001_2442_I,0.0953735314537838
7663343-0001_2443_I,0.0940122086603352
7663343-0001_2444_I,0.0923231805784615
7663343-0001_2445_I,0.0882221808533326
7663343-0001_2446_I,0.0830755306078443
7663343-0001_2447_I,0.0778534241000342
7663343-0001_2448_I,0.0728521326798036
7663343-0001_2449_I,0.0678508782842357
7663343-0001_2450_I,0.0628495498393426
7663343-0001_2451_I,0.0576825730541022
7663343-0001_2452_I,0.0524537650823666
7663343-0001_2453_I,0.0481881907321049
7663343-0001_2454_I,0.0458161316751024
7663343-0001_2455_I,0.0445504435850773
7663343-0001_2456_I,0.0431781244668449
7663343-0001_2457_I,0.0404861723252199
7663343-0001_2458_I,0.0360073359185434
7663343-0001_2459_I,0.0303352686864953
7663343-0001_2460_I,0.0252679622928988
7663343-0001_2461_I,0.0215908209048946
7663343-0001_2462_I,0.0197971981512549
7663343-0001_2463_I,0.0186737588148316
7663343-0001_2464_I,0.0170071676784766
7663343-0001_2465_I,0.01358449679633
7663343-0001_2466_I,0.0086760632298301
7663343-0001_2467_I,0.0028449750720351
7663343-0001_2468_I,-0.0018245383468873
7663343-0001_2469_I,-0.0048027651795192
7663343-0001_2470_I,-0.0062703857792121
7663343-0001_2471_I,-0.007440402141151
7663343-0001_2472_I,-0.0099890688386222
7663343-0001_2473_I,-0.0138463352100394
7663343-0001_2474_I,-0.0173538666188012
7663343-0001_2475_I,-0.019298438921747
7663343-0001_2476_I,-0.019577790000853
7663343-0001_2477_I,-0.018704267136791
7663343-0001_2478_I,-0.0188408511170192
7663343-0001_2479_I,-0.0204891890947262
7663343-0001_2480_I,-0.0238588776847323
7663343-0001_2481_I,-0.027736692743877
7663343-0001_2482_I,-0.0309094101289998
7663343-0001_2483_I,-0.0321638056969404
7663343-0001_2484_I,-0.0321663603986579
7663343-0001_2485_I,-0.0318471337579618
7663343-0001_2486_I,-0.0318471337579618
7663343-0001_2487_I,-0.0318471337579618
7663343-0001_2488_I,-0.0318471337579618
7663343-0001_2489_I,-0.0318471337579618
7663343-0001_2490_I,-0.0318471337579618
7663343-0001_2491_I,-0.0318471337579618
7663343-0001_2492_I,-0.0318471337579618
7663343-0001_2493_I,-0.0318471337579618
7663343-0001_2494_I,-0.0319144445945177
7663343-0001_2495_I,-0.0332423341176638
7663343-0001_2496_I,-0.0323261958669813
7663343-0001_2497_I,-0.0266129942348157
7663343-0001_2498_I,-0.0161703362550235
7663343-0001_2499_I,-0.0036850646657946
7663343-0001_0_II,0.1210191082802548
7663343-0001_1_II,0.1210191082802548
7663343-0001_2_II,0.1210191082802548
7663343-0001_3_II,0.1210191082802548
7663343-0001_4_II,0.1210191082802548
7663343-0001_5_II,0.1210191082802548
7663343-0001_6_II,0.1210191082802548
7663343-0001_7_II,0.1210191082802548
7663343-0001_8_II,0.1210191082802548
7663343-0001_9_II,0.1210191082802548
7663343-0001_10_II,0.1210191082802548
7663343-0001_11_II,0.1207852605114499
7663343-0001_12_II,0.1206597469053307
7663343-0001_13_II,0.1215994328414089
7663343-0001_14_II,0.1245343778434942
7663343-0001_15_II,0.1283719841190856
7663343-0001_16_II,0.1317100536472552
7663343-0001_17_II,0.1335204855977025
7663343-0001_18_II,0.1346441100574387
7663343-0001_19_II,0.1365364405614954
7663343-0001_20_II,0.1404104050557326
7663343-0001_21_II,0.1454570887122764
7663343-0001_22_II,0.1507454693660905
7663343-0001_23_II,0.155746760786321
7663343-0001_24_II,0.1607481262558767
7663343-0001_25_II,0.1657494176761072
7663343-0001_26_II,0.1707504869483623
7663343-0001_27_II,0.1757517043192676
7663343-0001_28_II,0.1807527735915227
7663343-0001_29_II,0.1857542131104035
7663343-0001_30_II,0.1907557266786095
7663343-0001_31_II,0.1958113703034957
7663343-0001_32_II,0.2012075667747196
7663343-0001_33_II,0.2058076589513195
7663343-0001_34_II,0.2089519413955871
7663343-0001_35_II,0.210456327485214
7663343-0001_36_II,0.210603833740901
7663343-0001_37_II,0.2097194626507054
7663343-0001_38_II,0.2099854478266229
7663343-0001_39_II,0.2119104340830681
7663343-0001_40_II,0.2154114861758798
7663343-0001_41_II,0.2192753799618974
7663343-0001_42_II,0.2222888912979604
7663343-0001_43_II,0.2232807820082653
7663343-0001_44_II,0.2231811116166213
7663343-0001_45_II,0.2229299363057326
7663343-0001_46_II,0.2229299363057326
7663343-0001_47_II,0.2229299363057326
7663343-0001_48_II,0.2229299363057326
7663343-0001_49_II,0.2229299363057326
7663343-0001_50_II,0.2229299363057326
7663343-0001_51_II,0.2229299363057326
7663343-0001_52_II,0.2229299363057326
7663343-0001_53_II,0.2229299363057326
7663343-0001_54_II,0.2229299363057326
7663343-0001_55_II,0.2229299363057326
7663343-0001_56_II,0.2229299363057326
7663343-0001_57_II,0.2229299363057326
7663343-0001_58_II,0.2229299363057326
7663343-0001_59_II,0.2229754025913711
7663343-0001_60_II,0.2233834884222401
7663343-0001_61_II,0.2230089469356614
7663343-0001_62_II,0.2209217186078255
7663343-0001_63_II,0.2173666845569838
7663343-0001_64_II,0.2135570689262968
7663343-0001_65_II,0.2107060958589249
7663343-0001_66_II,0.2098223912126556
7663343-0001_67_II,0.2101922675917503
7663343-0001_68_II,0.2105591819978391
7663343-0001_69_II,0.2096719229839629
7663343-0001_70_II,0.2068156183651806
7663343-0001_71_II,0.2030042255506902
7663343-0001_72_II,0.1996224669206856
7663343-0001_73_II,0.1977596080480362
7663343-0001_74_II,0.1966359835883001
7663343-0001_75_II,0.1947786043657114
7663343-0001_76_II,0.1909745424344102
7663343-0001_77_II,0.1858275959916213
7663343-0001_78_II,0.1802350207101154
7663343-0001_79_II,0.1758515228095619
7663343-0001_80_II,0.1733025228901275
7663343-0001_81_II,0.1719780766606007
7663343-0001_82_II,0.1706651080764711
7663343-0001_83_II,0.1681500227479528
7663343-0001_84_II,0.1637890358422431
7663343-0001_85_II,0.1585123549818018
7663343-0001_86_II,0.153376812135085
7663343-0001_87_II,0.1483753726162042
7663343-0001_88_II,0.1433743033439491
7663343-0001_89_II,0.1383730859730438
7663343-0001_90_II,0.1333720167007887
7663343-0001_91_II,0.1283707252805582
7663343-0001_92_II,0.1233693598110025
7663343-0001_93_II,0.118368068390772
7663343-0001_94_II,0.1133669991185169
7663343-0001_95_II,0.1083657817476115
7663343-0001_96_II,0.1033647124753564
7663343-0001_97_II,0.0983632729564756
7663343-0001_98_II,0.0933617593882697
7663343-0001_99_II,0.0883603198693889
7663343-0001_100_II,0.0833592505971338
7663343-0001_101_II,0.0783581813248787
7663343-0001_102_II,0.0733567418059979
7663343-0001_103_II,0.068355228237792
7663343-0001_104_II,0.0633537887189112
7663343-0001_105_II,0.0583527194466561
7663343-0001_106_II,0.053351650174401
7663343-0001_107_II,0.0483502106555202
7663343-0001_108_II,0.0430151789268653
7663343-0001_109_II,0.0380377313893312
7663343-0001_110_II,0.0343480756653776
7663343-0001_111_II,0.0325486770643767
7663343-0001_112_II,0.031425274752616
7663343-0001_113_II,0.0294762965148241
7663343-0001_114_II,0.0260226359901046
7663343-0001_115_II,0.0222541177348726
7663343-0001_116_II,0.0195267329911662
7663343-0001_117_II,0.0187258154904079
7663343-0001_118_II,0.0191644096432362
7663343-0001_119_II,0.0194626803249166
7663343-0001_120_II,0.0184932265601304
7663343-0001_121_II,0.0155136298149833
7663343-0001_122_II,0.0116611396250379
7663343-0001_123_II,0.0081489801334546
7663343-0001_124_II,0.006190375483394
7663343-0001_125_II,0.0059015831153321
7663343-0001_126_II,0.0063525435054595
7663343-0001_127_II,0.0063694267515923
7663343-0001_128_II,0.0063694267515923
7663343-0001_129_II,0.0063694267515923
7663343-0001_130_II,0.0063694267515923
7663343-0001_131_II,0.0067390809827115
7663343-0001_132_II,0.0066608848953594
7663343-0001_133_II,0.0052047789657264
7663343-0001_134_II,0.0019312063997573
7663343-0001_135_II,-0.0019466086593873
7663343-0001_136_II,-0.0052154420685471
7663343-0001_137_II,-0.0066620696845617
7663343-0001_138_II,-0.0067367114043069
7663343-0001_139_II,-0.0063694267515923
7663343-0001_140_II,-0.0063694267515923
7663343-0001_141_II,-0.0063694267515923
7663343-0001_142_II,-0.0063694267515923
7663343-0001_143_II,-0.0063501739270549
7663343-0001_144_II,-0.0059027679045344
7663343-0001_145_II,-0.0061986690078101
7663343-0001_146_II,-0.0081679367606915
7663343-0001_147_II,-0.0116836506198817
7663343-0001_148_II,-0.0155325864422202
7663343-0001_149_II,-0.0185015200845465
7663343-0001_150_II,-0.0194638651141189
7663343-0001_151_II,-0.0193496810547467
7663343-0001_152_II,-0.019108280254777
7663343-0001_153_II,-0.019108280254777
7663343-0001_154_II,-0.0187024899529875
7663343-0001_155_II,-0.0188348901463451
7663343-0001_156_II,-0.0204355403586594
7663343-0001_157_II,-0.023781385065969
7663343-0001_158_II,-0.0276592001251137
7663343-0001_159_II,-0.0308557613929329
7663343-0001_160_II,-0.0321578447262663
7663343-0001_161_II,-0.032178282340006
7663343-0001_162_II,-0.0318471337579618
7663343-0001_163_II,-0.0318471337579618
7663343-0001_164_II,-0.0318471337579618
7663343-0001_165_II,-0.0318471337579618
7663343-0001_166_II,-0.0318471337579618
7663343-0001_167_II,-0.0318471337579618
7663343-0001_168_II,-0.0318471337579618
7663343-0001_169_II,-0.0318471337579618
7663343-0001_170_II,-0.0318471337579618
7663343-0001_171_II,-0.0318471337579618
7663343-0001_172_II,-0.0318471337579618
7663343-0001_173_II,-0.0318471337579618
7663343-0001_174_II,-0.0318471337579618
7663343-0001_175_II,-0.0318471337579618
7663343-0001_176_II,-0.0318471337579618
7663343-0001_177_II,-0.0318471337579618
7663343-0001_178_II,-0.0318471337579618
7663343-0001_179_II,-0.0318471337579618
7663343-0001_180_II,-0.0318471337579618
7663343-0001_181_II,-0.0318471337579618
7663343-0001_182_II,-0.0318471337579618
7663343-0001_183_II,-0.0318471337579618
7663343-0001_184_II,-0.0318471337579618
7663343-0001_185_II,-0.0318471337579618
7663343-0001_186_II,-0.0318471337579618
7663343-0001_187_II,-0.0318471337579618
7663343-0001_188_II,-0.0318471337579618
7663343-0001_189_II,-0.0318471337579618
7663343-0001_190_II,-0.0318471337579618
7663343-0001_191_II,-0.0318471337579618
7663343-0001_192_II,-0.0318471337579618
7663343-0001_193_II,-0.0318471337579618
7663343-0001_194_II,-0.0318471337579618
7663343-0001_195_II,-0.0318471337579618
7663343-0001_196_II,-0.0318471337579618
7663343-0001_197_II,-0.0318471337579618
7663343-0001_198_II,-0.0318471337579618
7663343-0001_199_II,-0.0318471337579618
7663343-0001_200_II,-0.0318471337579618
7663343-0001_201_II,-0.0318471337579618
7663343-0001_202_II,-0.0318471337579618
7663343-0001_203_II,-0.0318471337579618
7663343-0001_204_II,-0.0318471337579618
7663343-0001_205_II,-0.0322803223100546
7663343-0001_206_II,-0.0321069728398923
7663343-0001_207_II,-0.0303963593797391
7663343-0001_208_II,-0.0269954960238474
7663343-0001_209_II,-0.0231176069153776
7663343-0001_210_II,-0.0199759161974901
7663343-0001_211_II,-0.0187836480133454
7663343-0001_212_II,-0.0188046780216863
7663343-0001_213_II,-0.019108280254777
7663343-0001_214_II,-0.019108280254777
7663343-0001_215_II,-0.019108280254777
7663343-0001_216_II,-0.019108280254777
7663343-0001_217_II,-0.019108280254777
7663343-0001_218_II,-0.019108280254777
7663343-0001_219_II,-0.019108280254777
7663343-0001_220_II,-0.019108280254777
7663343-0001_221_II,-0.019108280254777
7663343-0001_222_II,-0.019108280254777
7663343-0001_223_II,-0.019108280254777
7663343-0001_224_II,-0.019108280254777
7663343-0001_225_II,-0.019108280254777
7663343-0001_226_II,-0.019108280254777
7663343-0001_227_II,-0.019108280254777
7663343-0001_228_II,-0.019108280254777
7663343-0001_229_II,-0.019108280254777
7663343-0001_230_II,-0.019108280254777
7663343-0001_231_II,-0.019108280254777
7663343-0001_232_II,-0.019108280254777
7663343-0001_233_II,-0.019108280254777
7663343-0001_234_II,-0.019108280254777
7663343-0001_235_II,-0.019272225460646
7663343-0001_236_II,-0.0195025929111692
7663343-0001_237_II,-0.018772614663899
7663343-0001_238_II,-0.0161522311950257
7663343-0001_239_II,-0.0124194787638383
7663343-0001_240_II,-0.0087875815134971
7663343-0001_241_II,-0.0064697635871625
7663343-0001_242_II,-0.0059414957015847
7663343-0001_243_II,-0.0062727183329542
7663343-0001_244_II,-0.0063694267515923
7663343-0001_245_II,-0.0063694267515923
7663343-0001_246_II,-0.0063694267515923
7663343-0001_247_II,-0.0063694267515923
7663343-0001_248_II,-0.0063694267515923
7663343-0001_249_II,-0.0063694267515923
7663343-0001_250_II,-0.0063694267515923
7663343-0001_251_II,-0.0063694267515923
7663343-0001_252_II,-0.0063694267515923
7663343-0001_253_II,-0.0063694267515923
7663343-0001_254_II,-0.0063694267515923
7663343-0001_255_II,-0.0063694267515923
7663343-0001_256_II,-0.0063694267515923
7663343-0001_257_II,-0.0063694267515923
7663343-0001_258_II,-0.0063694267515923
7663343-0001_259_II,-0.0063694267515923
7663343-0001_260_II,-0.0063694267515923
7663343-0001_261_II,-0.0063694267515923
7663343-0001_262_II,-0.0063694267515923
7663343-0001_263_II,-0.0063694267515923
7663343-0001_264_II,-0.0063694267515923
7663343-0001_265_II,-0.0063694267515923
7663343-0001_266_II,-0.0063694267515923
7663343-0001_267_II,-0.0063694267515923
7663343-0001_268_II,-0.0063694267515923
7663343-0001_269_II,-0.0063694267515923
7663343-0001_270_II,-0.0063694267515923
7663343-0001_271_II,-0.0063694267515923
7663343-0001_272_II,-0.0063694267515923
7663343-0001_273_II,-0.0063694267515923
7663343-0001_274_II,-0.0063694267515923
7663343-0001_275_II,-0.0063694267515923
7663343-0001_276_II,-0.0063694267515923
7663343-0001_277_II,-0.0063694267515923
7663343-0001_278_II,-0.0063694267515923
7663343-0001_279_II,-0.0063694267515923
7663343-0001_280_II,-0.0063694267515923
7663343-0001_281_II,-0.0063694267515923
7663343-0001_282_II,-0.0063694267515923
7663343-0001_283_II,-0.0063694267515923
7663343-0001_284_II,-0.0063694267515923
7663343-0001_285_II,-0.0063694267515923
7663343-0001_286_II,-0.0063694267515923
7663343-0001_287_II,-0.0063694267515923
7663343-0001_288_II,-0.0063694267515923
7663343-0001_289_II,-0.0063694267515923
7663343-0001_290_II,-0.0063694267515923
7663343-0001_291_II,-0.0063694267515923
7663343-0001_292_II,-0.0063694267515923
7663343-0001_293_II,-0.0063694267515923
7663343-0001_294_II,-0.0063694267515923
7663343-0001_295_II,-0.0063694267515923
7663343-0001_296_II,-0.0063694267515923
7663343-0001_297_II,-0.0063694267515923
7663343-0001_298_II,-0.0063694267515923
7663343-0001_299_II,-0.0063694267515923
7663343-0001_300_II,-0.0063694267515923
7663343-0001_301_II,-0.0063694267515923
7663343-0001_302_II,-0.0063694267515923
7663343-0001_303_II,-0.0063694267515923
7663343-0001_304_II,-0.0063694267515923
7663343-0001_305_II,-0.0063694267515923
7663343-0001_306_II,-0.0063694267515923
7663343-0001_307_II,-0.0063694267515923
7663343-0001_308_II,-0.0063694267515923
7663343-0001_309_II,-0.0063694267515923
7663343-0001_310_II,-0.0063694267515923
7663343-0001_311_II,-0.0063694267515923
7663343-0001_312_II,-0.0063694267515923
7663343-0001_313_II,-0.0063694267515923
7663343-0001_314_II,-0.0063694267515923
7663343-0001_315_II,-0.0063694267515923
7663343-0001_316_II,-0.0063694267515923
7663343-0001_317_II,-0.0063694267515923
7663343-0001_318_II,-0.0063694267515923
7663343-0001_319_II,-0.0063694267515923
7663343-0001_320_II,-0.0063694267515923
7663343-0001_321_II,-0.0063694267515923
7663343-0001_322_II,-0.0063694267515923
7663343-0001_323_II,-0.0063694267515923
7663343-0001_324_II,-0.0063694267515923
7663343-0001_325_II,-0.0063694267515923
7663343-0001_326_II,-0.0063694267515923
7663343-0001_327_II,-0.0063694267515923
7663343-0001_328_II,-0.0063694267515923
7663343-0001_329_II,-0.0063694267515923
7663343-0001_330_II,-0.0063694267515923
7663343-0001_331_II,-0.0063694267515923
7663343-0001_332_II,-0.0063694267515923
7663343-0001_333_II,-0.0063694267515923
7663343-0001_334_II,-0.0063694267515923
7663343-0001_335_II,-0.0063694267515923
7663343-0001_336_II,-0.0063694267515923
7663343-0001_337_II,-0.0063694267515923
7663343-0001_338_II,-0.0063694267515923
7663343-0001_339_II,-0.0063694267515923
7663343-0001_340_II,-0.0063694267515923
7663343-0001_341_II,-0.0063694267515923
7663343-0001_342_II,-0.0063694267515923
7663343-0001_343_II,-0.0063694267515923
7663343-0001_344_II,-0.0063694267515923
7663343-0001_345_II,-0.0063694267515923
7663343-0001_346_II,-0.0063694267515923
7663343-0001_347_II,-0.0063694267515923
7663343-0001_348_II,-0.0063694267515923
7663343-0001_349_II,-0.0063694267515923
7663343-0001_350_II,-0.0063694267515923
7663343-0001_351_II,-0.0063694267515923
7663343-0001_352_II,-0.0062853067182287
7663343-0001_353_II,-0.0059352015089475
7663343-0001_354_II,-0.0064257042387018
7663343-0001_355_II,-0.0086868744313011
7663343-0001_356_II,-0.0122998891037306
7663343-0001_357_II,-0.0160515241128298
7663343-0001_358_II,-0.0187285553154382
7663343-0001_359_II,-0.019496298718532
7663343-0001_360_II,-0.0192848138459205
7663343-0001_361_II,-0.019108280254777
7663343-0001_362_II,-0.019108280254777
7663343-0001_363_II,-0.019108280254777
7663343-0001_364_II,-0.019108280254777
7663343-0001_365_II,-0.019108280254777
7663343-0001_366_II,-0.019108280254777
7663343-0001_367_II,-0.019108280254777
7663343-0001_368_II,-0.019108280254777
7663343-0001_369_II,-0.019108280254777
7663343-0001_370_II,-0.019108280254777
7663343-0001_371_II,-0.019108280254777
7663343-0001_372_II,-0.019108280254777
7663343-0001_373_II,-0.0194891899833181
7663343-0001_374_II,-0.0193939625511829
7663343-0001_375_II,-0.017893204878488
7663343-0001_376_II,-0.0145973434656506
7663343-0001_377_II,-0.010719602455831
7663343-0001_378_II,-0.0074732059921898
7663343-0001_379_II,-0.0060713782178874
7663343-0001_380_II,-0.0060132494976493
7663343-0001_381_II,-0.0063694267515923
7663343-0001_382_II,-0.0063694267515923
7663343-0001_383_II,-0.0063694267515923
7663343-0001_384_II,-0.0063694267515923
7663343-0001_385_II,-0.0063694267515923
7663343-0001_386_II,-0.0063694267515923
7663343-0001_387_II,-0.0063694267515923
7663343-0001_388_II,-0.0063694267515923
7663343-0001_389_II,-0.0063694267515923
7663343-0001_390_II,-0.0063694267515923
7663343-0001_391_II,-0.006831346441841
7663343-0001_392_II,-0.0066146040671443
7663343-0001_393_II,-0.004789806547619
7663343-0001_394_II,-0.0013319252113663
7663343-0001_395_II,0.0025458157984531
7663343-0001_396_II,0.0056301923386791
7663343-0001_397_II,0.006707980266151
7663343-0001_398_II,0.0066445940438277
7663343-0001_399_II,0.0063694267515923
7663343-0001_400_II,0.0063694267515923
7663343-0001_401_II,0.0063694267515923
7663343-0001_402_II,0.0063694267515923
7663343-0001_403_II,0.0062579084679253
7663343-0001_404_II,0.0059489006340991
7663343-0001_405_II,0.0065214500161131
7663343-0001_406_II,0.008906282581703
7663343-0001_407_II,0.0125606167775629
7663343-0001_408_II,0.0162712284605323
7663343-0001_409_II,0.0188248934874507
7663343-0001_410_II,0.0195102199916591
7663343-0001_411_II,0.0192572674969669
7663343-0001_412_II,0.019108280254777
7663343-0001_413_II,0.0190865097531847
7663343-0001_414_II,0.0186428802462466
7663343-0001_415_II,0.018946334380687
7663343-0001_416_II,0.0209269316803154
7663343-0001_417_II,0.0244464220550879
7663343-0001_418_II,0.0282915813618441
7663343-0001_419_II,0.0307960035875417
7663343-0001_420_II,0.0319542831314452
7663343-0001_421_II,0.0336265390411738
7663343-0001_422_II,0.0368282837617531
7663343-0001_423_II,0.0407060988208978
7663343-0001_424_II,0.0433997170723385
7663343-0001_425_II,0.0446480405956172
7663343-0001_426_II,0.0460602352754398
7663343-0001_427_II,0.0488724805457613
7663343-0001_428_II,0.053431327248256
7663343-0001_429_II,0.0591705201935472
7663343-0001_430_II,0.064171441367152
7663343-0001_431_II,0.067844361943623
7663343-0001_432_II,0.0699067837475357
7663343-0001_433_II,0.0704837020397331
7663343-0001_434_II,0.0701765454390355
7663343-0001_435_II,0.0700636942675159
7663343-0001_436_II,0.0700636942675159
7663343-0001_437_II,0.0700636942675159
7663343-0001_438_II,0.0700636942675159
7663343-0001_439_II,0.0703372324745981
7663343-0001_440_II,0.0704033585219518
7663343-0001_441_II,0.0693313464418411
7663343-0001_442_II,0.0662497837759706
7663343-0001_443_II,0.0623718946675008
7663343-0001_444_II,0.059139567575637
7663343-0001_445_II,0.0574419867967091
7663343-0001_446_II,0.0562994057097361
7663343-0001_447_II,0.0542954828726873
7663343-0001_448_II,0.0502752709612906
7663343-0001_449_II,0.0449851871729982
7663343-0001_450_II,0.0395354530396952
7663343-0001_451_II,0.0353235274255004
7663343-0001_452_II,0.0326325749497649
7663343-0001_453_II,0.0315170959157946
7663343-0001_454_II,0.0315546389236427
7663343-0001_455_II,0.0318471337579618
7663343-0001_456_II,0.0318471337579618
7663343-0001_457_II,0.0318471337579618
7663343-0001_458_II,0.0318471337579618
7663343-0001_459_II,0.0319411764008947
7663343-0001_460_II,0.0322763976958219
7663343-0001_461_II,0.0317561271373597
7663343-0001_462_II,0.0294503052016985
7663343-0001_463_II,0.0258224066149151
7663343-0001_464_II,0.0220856555201698
7663343-0001_465_II,0.0194532760606233
7663343-0001_466_II,0.0187153004862375
7663343-0001_467_II,0.0189416692732029
7663343-0001_468_II,0.019108280254777
7663343-0001_469_II,0.0191125751156354
7663343-0001_470_II,0.0195824180836745
7663343-0001_471_II,0.0193313908714361
7663343-0001_472_II,0.0174294339551107
7663343-0001_473_II,0.0139361570414392
7663343-0001_474_II,0.010064784273582
7663343-0001_475_II,0.0074642460238474
7663343-0001_476_II,0.0062796049201926
7663343-0001_477_II,0.0048264609635653
7663343-0001_478_II,0.0018910716655292
7663343-0001_479_II,-0.0027499697878753
7663343-0001_480_II,-0.0081663076755383
7663343-0001_481_II,-0.0132083262245981
7663343-0001_482_II,-0.0183403147037079
7663343-0001_483_II,-0.0236226973621853
7663343-0001_484_II,-0.0279954581105929
7663343-0001_485_II,-0.0305280931291704
7663343-0001_486_II,-0.0318470597086366
7663343-0001_487_II,-0.0332512570613436
7663343-0001_488_II,-0.0361313315134971
7663343-0001_489_II,-0.0400091465726418
7663343-0001_490_II,-0.0430244350925083
7663343-0001_491_II,-0.0445408171728086
7663343-0001_492_II,-0.0458326076499469
7663343-0001_493_II,-0.0485779863796633
7663343-0001_494_II,-0.0524558754881332
7663343-0001_495_II,-0.0558620703954353
7663343-0001_496_II,-0.0575833469584092
7663343-0001_497_II,-0.0577606950921292
7663343-0001_498_II,-0.0573248407643312
7663343-0001_499_II,-0.0573248407643312
7663343-0001_500_II,-0.0573248407643312
7663343-0001_501_II,-0.0573248407643312
7663343-0001_502_II,-0.0573248407643312
7663343-0001_503_II,-0.0573248407643312
7663343-0001_504_II,-0.0573248407643312
7663343-0001_505_II,-0.0573248407643312
7663343-0001_506_II,-0.0573248407643312
7663343-0001_507_II,-0.0573248407643312
7663343-0001_508_II,-0.0569427462465878
7663343-0001_509_II,-0.0570396027638763
7663343-0001_510_II,-0.0585454698400061
7663343-0001_511_II,-0.0618439229792235
7663343-0001_512_II,-0.0657217380383682
7663343-0001_513_II,-0.0689656908742797
7663343-0001_514_II,-0.0703625573437974
7663343-0001_515_II,-0.0703419716314074
7663343-0001_516_II,-0.0696256925092888
7663343-0001_517_II,-0.070093536145549
7663343-0001_518_II,-0.0723207176979072
7663343-0001_519_II,-0.0759224028235897
7663343-0001_520_II,-0.0796853673794359
7663343-0001_521_II,-0.0823963872222854
7663343-0001_522_II,-0.0831867897188732
7663343-0001_523_II,-0.0829866343930088
7663343-0001_524_II,-0.0828025477707007
7663343-0001_525_II,-0.0828025477707007
7663343-0001_526_II,-0.0832656522501517
7663343-0001_527_II,-0.0830472807903018
7663343-0001_528_II,-0.0812173738673416
7663343-0001_529_II,-0.0777569008047089
7663343-0001_530_II,-0.0738790857455642
7663343-0001_531_II,-0.070797152833068
7663343-0001_532_II,-0.0697243262103807
7663343-0001_533_II,-0.0699474368270398
7663343-0001_534_II,-0.0704611910448893
7663343-0001_535_II,-0.0697503175235062
7663343-0001_536_II,-0.0675317997421899
7663343-0001_537_II,-0.0637252201338338
7663343-0001_538_II,-0.0587257799467319
7663343-0001_539_II,-0.053405632132431
7663343-0001_540_II,-0.0484042666628753
7663343-0001_541_II,-0.0434026049960191
7663343-0001_542_II,-0.0384009433291629
7663343-0001_543_II,-0.0336030654051031
7663343-0001_544_II,-0.0297253984446087
7663343-0001_545_II,-0.0233990684002502
7663343-0001_546_II,-0.0121176537145511
7663343-0001_547_II,0.0035985010047012
7663343-0001_548_II,0.0209706207821504
7663343-0001_549_II,0.0359984870241886
7663343-0001_550_II,0.0482478744881711
7663343-0001_551_II,0.0620871009629967
7663343-0001_552_II,0.0788649008568396
7663343-0001_553_II,0.0956004185860252
7663343-0001_554_II,0.1094591200333637
7663343-0001_555_II,0.1171086374687216
7663343-0001_556_II,0.1203428898430392
7663343-0001_557_II,0.1215596683538066
7663343-0001_558_II,0.1210445071987793
